   0.0000000e+00   2.8517001e+02
   1.0000000e-03   3.9277482e+02
   2.0000000e-03   2.8428288e+02
   3.0000000e-03   8.9866822e+01
   4.0000000e-03  -6.5747942e+01
   5.0000000e-03  -1.4435456e+02
   6.0000000e-03  -1.8802846e+02
   7.0000000e-03  -2.4382310e+02
   8.0000000e-03  -3.0552961e+02
   9.0000000e-03  -3.2976616e+02
   1.0000000e-02  -2.8496710e+02
   1.1000000e-02  -1.8133835e+02
   1.2000000e-02  -5.9309294e+01
   1.3000000e-02   5.0490474e+01
   1.4000000e-02   1.4133055e+02
   1.5000000e-02   2.1486052e+02
   1.6000000e-02   2.6719184e+02
   1.7000000e-02   2.8326657e+02
   1.8000000e-02   2.5045574e+02
   1.9000000e-02   1.7389808e+02
   2.0000000e-02   6.9891288e+01
   2.1000000e-02  -4.3347742e+01
   2.2000000e-02  -1.5016860e+02
   2.3000000e-02  -2.4023502e+02
   2.4000000e-02  -3.0193540e+02
   2.5000000e-02  -3.2383605e+02
   2.6000000e-02  -3.0279064e+02
   2.7000000e-02  -2.4108332e+02
   2.8000000e-02  -1.4869911e+02
   2.9000000e-02  -4.0363663e+01
   3.0000000e-02   7.1314905e+01
   3.1000000e-02   1.6994098e+02
   3.2000000e-02   2.4138767e+02
   3.3000000e-02   2.7663276e+02
   3.4000000e-02   2.6828111e+02
   3.5000000e-02   2.1849720e+02
   3.6000000e-02   1.3588240e+02
   3.7000000e-02   3.0202411e+01
   3.8000000e-02  -8.1643851e+01
   3.9000000e-02  -1.8464827e+02
   4.0000000e-02  -2.6720860e+02
   4.1000000e-02  -3.1547099e+02
   4.2000000e-02  -3.2315220e+02
   4.3000000e-02  -2.8945199e+02
   4.4000000e-02  -2.1692955e+02
   4.5000000e-02  -1.1765203e+02
   4.6000000e-02  -5.8417587e+00
   4.7000000e-02   1.0371986e+02
   4.8000000e-02   1.9368387e+02
   4.9000000e-02   2.5358433e+02
   5.0000000e-02   2.7616395e+02
   5.1000000e-02   2.5550412e+02
   5.2000000e-02   1.9662801e+02
   5.3000000e-02   1.0665559e+02
   5.4000000e-02  -3.2884818e+00
   5.5000000e-02  -1.1500768e+02
   5.6000000e-02  -2.1356513e+02
   5.7000000e-02  -2.8551991e+02
   5.8000000e-02  -3.1971421e+02
   5.9000000e-02  -3.1357779e+02
   6.0000000e-02  -2.6667888e+02
   6.1000000e-02  -1.8381320e+02
   6.2000000e-02  -7.8607337e+01
   6.3000000e-02   3.5931513e+01
   6.4000000e-02   1.4292748e+02
   6.5000000e-02   2.2481347e+02
   6.6000000e-02   2.7297179e+02
   6.7000000e-02   2.8053522e+02
   6.8000000e-02   2.4593365e+02
   6.9000000e-02   1.7563844e+02
   7.0000000e-02   7.7360694e+01
   7.1000000e-02  -3.4956439e+01
   7.2000000e-02  -1.4375464e+02
   7.3000000e-02  -2.3528281e+02
   7.4000000e-02  -2.9490094e+02
   7.5000000e-02  -3.1382931e+02
   7.6000000e-02  -2.9246728e+02
   7.7000000e-02  -2.3110087e+02
   7.8000000e-02  -1.3857465e+02
   7.9000000e-02  -2.9040858e+01
   8.0000000e-02   8.4431412e+01
   8.1000000e-02   1.8448520e+02
   8.2000000e-02   2.5659470e+02
   8.3000000e-02   2.9234819e+02
   8.4000000e-02   2.8516313e+02
   8.5000000e-02   2.3732783e+02
   8.6000000e-02   1.5671587e+02
   8.7000000e-02   5.2097422e+01
   8.8000000e-02  -5.9917933e+01
   8.9000000e-02  -1.6372843e+02
   9.0000000e-02  -2.4686891e+02
   9.1000000e-02  -2.9495036e+02
   9.2000000e-02  -3.0184698e+02
   9.3000000e-02  -2.6730868e+02
   9.4000000e-02  -1.9416738e+02
   9.5000000e-02  -9.4264142e+01
   9.6000000e-02   1.8705794e+01
   9.7000000e-02   1.3022894e+02
   9.8000000e-02   2.2241512e+02
   9.9000000e-02   2.8374520e+02
   1.0000000e-01   3.0618417e+02
   1.0100000e-01   2.8398927e+02
   1.0200000e-01   2.2337028e+02
   1.0300000e-01   1.3260085e+02
   1.0400000e-01   2.2967183e+01
   1.0500000e-01  -8.8120614e+01
   1.0600000e-01  -1.8663589e+02
   1.0700000e-01  -2.5917435e+02
   1.0800000e-01  -2.9375195e+02
   1.0900000e-01  -2.8716342e+02
   1.1000000e-01  -2.3925860e+02
   1.1100000e-01  -1.5579918e+02
   1.1200000e-01  -5.1034974e+01
   1.1300000e-01   6.2510041e+01
   1.1400000e-01   1.6891599e+02
   1.1500000e-01   2.5093942e+02
   1.1600000e-01   2.9931117e+02
   1.1700000e-01   3.0618237e+02
   1.1800000e-01   2.6990467e+02
   1.1900000e-01   1.9801250e+02
   1.2000000e-01   9.9323415e+01
   1.2100000e-01  -1.2130274e+01
   1.2200000e-01  -1.1986500e+02
   1.2300000e-01  -2.1137016e+02
   1.2400000e-01  -2.7220771e+02
   1.2500000e-01  -2.9281516e+02
   1.2600000e-01  -2.7271153e+02
   1.2700000e-01  -2.1189053e+02
   1.2800000e-01  -1.1962975e+02
   1.2900000e-01  -1.0477818e+01
   1.3000000e-01   1.0258883e+02
   1.3100000e-01   2.0242008e+02
   1.3200000e-01   2.7441941e+02
   1.3300000e-01   3.0969373e+02
   1.3400000e-01   3.0119288e+02
   1.3500000e-01   2.5139599e+02
   1.3600000e-01   1.6889509e+02
   1.3700000e-01   6.3136516e+01
   1.3800000e-01  -4.9092784e+01
   1.3900000e-01  -1.5270433e+02
   1.4000000e-01  -2.3589420e+02
   1.4100000e-01  -2.8447867e+02
   1.4200000e-01  -2.9206424e+02
   1.4300000e-01  -2.5786789e+02
   1.4400000e-01  -1.8443411e+02
   1.4500000e-01  -8.3914745e+01
   1.4600000e-01   2.9380745e+01
   1.4700000e-01   1.4044925e+02
   1.4800000e-01   2.3145635e+02
   1.4900000e-01   2.9152140e+02
   1.5000000e-01   3.1318889e+02
   1.5100000e-01   2.9072870e+02
   1.5200000e-01   2.2987588e+02
   1.5300000e-01   1.3839758e+02
   1.5400000e-01   2.7713261e+01
   1.5500000e-01  -8.4079080e+01
   1.5600000e-01  -1.8248609e+02
   1.5700000e-01  -2.5437844e+02
   1.5800000e-01  -2.8864541e+02
   1.5900000e-01  -2.8271114e+02
   1.6000000e-01  -2.3611185e+02
   1.6100000e-01  -1.5372520e+02
   1.6200000e-01  -4.9248420e+01
   1.6300000e-01   6.4516103e+01
   1.6400000e-01   1.7088247e+02
   1.6500000e-01   2.5233246e+02
   1.6600000e-01   3.0019710e+02
   1.6700000e-01   3.0742212e+02
   1.6800000e-01   2.7242162e+02
   1.6900000e-01   2.0178657e+02
   1.7000000e-01   1.0318823e+02
   1.7100000e-01  -9.6281814e+00
   1.7200000e-01  -1.1942693e+02
   1.7300000e-01  -2.1260336e+02
   1.7400000e-01  -2.7416750e+02
   1.7500000e-01  -2.9481650e+02
   1.7600000e-01  -2.7460472e+02
   1.7700000e-01  -2.1379920e+02
   1.7800000e-01  -1.2166461e+02
   1.7900000e-01  -1.2715331e+01
   1.8000000e-01   9.9941542e+01
   1.8100000e-01   1.9909244e+02
   1.8200000e-01   2.7043598e+02
   1.8300000e-01   3.0556949e+02
   1.8400000e-01   2.9766378e+02
   1.8500000e-01   2.4882336e+02
   1.8600000e-01   1.6688321e+02
   1.8700000e-01   6.0815227e+01
   1.8800000e-01  -5.2350313e+01
   1.8900000e-01  -1.5676519e+02
   1.9000000e-01  -2.3999217e+02
   1.9100000e-01  -2.8792606e+02
   1.9200000e-01  -2.9494746e+02
   1.9300000e-01  -2.6115320e+02
   1.9400000e-01  -1.8940047e+02
   1.9500000e-01  -9.1275776e+01
   1.9600000e-01   2.0021012e+01
   1.9700000e-01   1.3039227e+02
   1.9800000e-01   2.2209892e+02
   1.9900000e-01   2.8351944e+02
   2.0000000e-01   3.0618417e+02
   2.0100000e-01   2.8382392e+02
   2.0200000e-01   2.2238798e+02
   2.0300000e-01   1.3028014e+02
   2.0400000e-01   1.9379819e+01
   2.0500000e-01  -9.2243482e+01
   2.0600000e-01  -1.9036063e+02
   2.0700000e-01  -2.6195984e+02
   2.0800000e-01  -2.9582541e+02
   2.0900000e-01  -2.8932030e+02
   2.1000000e-01  -2.4221415e+02
   2.1100000e-01  -1.5971328e+02
   2.1200000e-01  -5.5486464e+01
   2.1300000e-01   5.8135091e+01
   2.1400000e-01   1.6496538e+02
   2.1500000e-01   2.4742280e+02
   2.1600000e-01   2.9611563e+02
   2.1700000e-01   3.0328935e+02
   2.1800000e-01   2.6741027e+02
   2.1900000e-01   1.9590822e+02
   2.2000000e-01   9.7352203e+01
   2.2100000e-01  -1.4374626e+01
   2.2200000e-01  -1.2271437e+02
   2.2300000e-01  -2.1485722e+02
   2.2400000e-01  -2.7608815e+02
   2.2500000e-01  -2.9681785e+02
   2.2600000e-01  -2.7677590e+02
   2.2700000e-01  -2.1629673e+02
   2.2800000e-01  -1.2485302e+02
   2.2900000e-01  -1.6870756e+01
   2.3000000e-01   9.5043034e+01
   2.3100000e-01   1.9420818e+02
   2.3200000e-01   2.6631739e+02
   2.3300000e-01   3.0236044e+02
   2.3400000e-01   2.9483564e+02
   2.3500000e-01   2.4563605e+02
   2.3600000e-01   1.6296108e+02
   2.3700000e-01   5.6305378e+01
   2.3800000e-01  -5.7154478e+01
   2.3900000e-01  -1.6179930e+02
   2.4000000e-01  -2.4542284e+02
   2.4100000e-01  -2.9381555e+02
   2.4200000e-01  -3.0088952e+02
   2.4300000e-01  -2.6633924e+02
   2.4400000e-01  -1.9312446e+02
   2.4500000e-01  -9.3460489e+01
   2.4600000e-01   1.8639593e+01
   2.4700000e-01   1.2862548e+02
   2.4800000e-01   2.1903501e+02
   2.4900000e-01   2.7908010e+02
   2.5000000e-01   3.0118080e+02
   2.5100000e-01   2.7944226e+02
   2.5200000e-01   2.1938013e+02
   2.5300000e-01   1.2849044e+02
   2.5400000e-01   1.7885296e+01
   2.5500000e-01  -9.4520516e+01
   2.5600000e-01  -1.9396672e+02
   2.5700000e-01  -2.6665480e+02
   2.5800000e-01  -3.0087842e+02
   2.5900000e-01  -2.9404280e+02
   2.6000000e-01  -2.4639921e+02
   2.6100000e-01  -1.6370117e+02
   2.6200000e-01  -5.9882193e+01
   2.6300000e-01   5.2876341e+01
   2.6400000e-01   1.5889261e+02
   2.6500000e-01   2.4114086e+02
   2.6600000e-01   2.9043175e+02
   2.6700000e-01   2.9862862e+02
   2.6800000e-01   2.6337897e+02
   2.6900000e-01   1.9144678e+02
   2.7000000e-01   9.1491120e+01
   2.7100000e-01  -2.1749957e+01
   2.7200000e-01  -1.3074072e+02
   2.7300000e-01  -2.2238853e+02
   2.7400000e-01  -2.8263027e+02
   2.7500000e-01  -3.0282190e+02
   2.7600000e-01  -2.8304950e+02
   2.7700000e-01  -2.2314535e+02
   2.7800000e-01  -1.3182232e+02
   2.7900000e-01  -2.3347086e+01
   2.8000000e-01   8.9055032e+01
   2.8100000e-01   1.8798903e+02
   2.8200000e-01   2.5915630e+02
   2.8300000e-01   2.9440686e+02
   2.8400000e-01   2.8716801e+02
   2.8500000e-01   2.3947055e+02
   2.8600000e-01   1.5875753e+02
   2.8700000e-01   5.3547659e+01
   2.8800000e-01  -5.9322604e+01
   2.8900000e-01  -1.6377742e+02
   2.9000000e-01  -2.4696803e+02
   2.9100000e-01  -2.9447796e+02
   2.9200000e-01  -3.0060806e+02
   2.9300000e-01  -2.6564166e+02
   2.9400000e-01  -1.9277474e+02
   2.9500000e-01  -9.3992126e+01
   2.9600000e-01   1.7173747e+01
   2.9700000e-01   1.2664909e+02
   2.9800000e-01   2.1720645e+02
   2.9900000e-01   2.7801292e+02
   3.0000000e-01   3.0118080e+02
   3.0100000e-01   2.8030250e+02
   3.0200000e-01   2.2052259e+02
   3.0300000e-01   1.2942181e+02
   3.0400000e-01   1.8644322e+01
   3.0500000e-01  -9.3224295e+01
   3.0600000e-01  -1.9124927e+02
   3.0700000e-01  -2.6218935e+02
   3.0800000e-01  -2.9512196e+02
   3.0900000e-01  -2.8781077e+02
   3.1000000e-01  -2.4007175e+02
   3.1100000e-01  -1.5681249e+02
   3.1200000e-01  -5.1625285e+01
   3.1300000e-01   6.2825741e+01
   3.1400000e-01   1.6997338e+02
   3.1500000e-01   2.5226302e+02
   3.1600000e-01   3.0087286e+02
   3.1700000e-01   3.0849818e+02
   3.1800000e-01   2.7332144e+02
   3.1900000e-01   2.0206699e+02
   3.2000000e-01   1.0295551e+02
   3.2100000e-01  -9.5652722e+00
   3.2200000e-01  -1.1788607e+02
   3.2300000e-01  -2.0887863e+02
   3.2400000e-01  -2.6865655e+02
   3.2500000e-01  -2.8881246e+02
   3.2600000e-01  -2.6938710e+02
   3.2700000e-01  -2.0961988e+02
   3.2800000e-01  -1.1755977e+02
   3.2900000e-01  -7.3866204e+00
   3.3000000e-01   1.0708722e+02
   3.3100000e-01   2.0758074e+02
   3.3200000e-01   2.7932271e+02
   3.3300000e-01   3.1447428e+02
   3.3400000e-01   3.0719401e+02
   3.3500000e-01   2.6008963e+02
   3.3600000e-01   1.8061489e+02
   3.3700000e-01   7.6733127e+01
   3.3800000e-01  -3.5331846e+01
   3.3900000e-01  -1.3980530e+02
   3.4000000e-01  -2.2369406e+02
   3.4100000e-01  -2.7205880e+02
   3.4200000e-01  -2.7871921e+02
   3.4300000e-01  -2.4372005e+02
   3.4400000e-01  -1.7021485e+02
   3.4500000e-01  -7.0299400e+01
   3.4600000e-01   4.2350949e+01
   3.4700000e-01   1.5337031e+02
   3.4800000e-01   2.4492018e+02
   3.4900000e-01   3.0555273e+02
   3.5000000e-01   3.2719833e+02
   3.5100000e-01   3.0398792e+02
   3.5200000e-01   2.4224115e+02
   3.5300000e-01   1.5037108e+02
   3.5400000e-01   3.9821358e+01
   3.5500000e-01  -7.1865750e+01
   3.5600000e-01  -1.7083639e+02
   3.5700000e-01  -2.4396913e+02
   3.5800000e-01  -2.7941306e+02
   3.5900000e-01  -2.7381032e+02
   3.6000000e-01  -2.2650971e+02
   3.6100000e-01  -1.4286331e+02
   3.6200000e-01  -3.7181732e+01
   3.6300000e-01   7.7589504e+01
   3.6400000e-01   1.8501894e+02
   3.6500000e-01   2.6773185e+02
   3.6600000e-01   3.1677339e+02
   3.6700000e-01   3.2448385e+02
   3.6800000e-01   2.8897894e+02
   3.6900000e-01   2.1724729e+02
   3.7000000e-01   1.1783409e+02
   3.7100000e-01   5.3053706e+00
   3.7200000e-01  -1.0290348e+02
   3.7300000e-01  -1.9370792e+02
   3.7400000e-01  -2.5291743e+02
   3.7500000e-01  -2.7180100e+02
   3.7600000e-01  -2.5040940e+02
   3.7700000e-01  -1.8859912e+02
   3.7800000e-01  -9.5421785e+01
   3.7900000e-01   1.4284989e+01
   3.8000000e-01   1.2671524e+02
   3.8100000e-01   2.2417559e+02
   3.8200000e-01   2.9264905e+02
   3.8300000e-01   3.2457914e+02
   3.8400000e-01   3.1388226e+02
   3.8500000e-01   2.6285611e+02
   3.8600000e-01   1.7908282e+02
   3.8700000e-01   7.1409931e+01
   3.8800000e-01  -4.2888253e+01
   3.8900000e-01  -1.4778725e+02
   3.9000000e-01  -2.3121659e+02
   3.9100000e-01  -2.7987755e+02
   3.9200000e-01  -2.8861008e+02
   3.9300000e-01  -2.5691217e+02
   3.9400000e-01  -1.8637711e+02
   3.9500000e-01  -8.7869166e+01
   3.9600000e-01   2.4736039e+01
   3.9700000e-01   1.3557299e+02
   3.9800000e-01   2.2553250e+02
   3.9900000e-01   2.8329494e+02
   4.0000000e-01   3.0218147e+02
   4.0100000e-01   2.7786584e+02
   4.0200000e-01   2.1693984e+02
   4.0300000e-01   1.2671825e+02
   4.0400000e-01   1.7273241e+01
   4.0500000e-01  -9.4490470e+01
   4.0600000e-01  -1.9416723e+02
   4.0700000e-01  -2.6747087e+02
   4.0800000e-01  -3.0195050e+02
   4.0900000e-01  -2.9468694e+02
   4.1000000e-01  -2.4615962e+02
   4.1100000e-01  -1.6274554e+02
   4.1200000e-01  -5.8834985e+01
   4.1300000e-01   5.3473301e+01
   4.1400000e-01   1.5881420e+02
   4.1500000e-01   2.4037536e+02
   4.1600000e-01   2.8894766e+02
   4.1700000e-01   2.9637725e+02
   4.1800000e-01   2.6065351e+02
   4.1900000e-01   1.8902477e+02
   4.2000000e-01   9.0176176e+01
   4.2100000e-01  -2.1862542e+01
   4.2200000e-01  -1.3060118e+02
   4.2300000e-01  -2.2338434e+02
   4.2400000e-01  -2.8544478e+02
   4.2500000e-01  -3.0682459e+02
   4.2600000e-01  -2.8676712e+02
   4.2700000e-01  -2.2540421e+02
   4.2800000e-01  -1.3252086e+02
   4.2900000e-01  -2.3221271e+01
   4.3000000e-01   8.9212068e+01
   4.3100000e-01   1.8785197e+02
   4.3200000e-01   2.5872385e+02
   4.3300000e-01   2.9358533e+02
   4.3400000e-01   2.8576141e+02
   4.3500000e-01   2.3752664e+02
   4.3600000e-01   1.5673016e+02
   4.3700000e-01   5.1925530e+01
   4.3800000e-01  -6.0712370e+01
   4.3900000e-01  -1.6592204e+02
   4.4000000e-01  -2.5094406e+02
   4.4100000e-01  -3.0053915e+02
   4.4200000e-01  -3.0784434e+02
   4.4300000e-01  -2.7258397e+02
   4.4400000e-01  -1.9842542e+02
   4.4500000e-01  -9.8256309e+01
   4.4600000e-01   1.3801406e+01
   4.4700000e-01   1.2362306e+02
   4.4800000e-01   2.1420965e+02
   4.4900000e-01   2.7473439e+02
   4.5000000e-01   2.9717810e+02
   4.5100000e-01   2.7533836e+02
   4.5200000e-01   2.1477922e+02
   4.5300000e-01   1.2341120e+02
   4.5400000e-01   1.2693186e+01
   4.5500000e-01  -9.9582189e+01
   4.5600000e-01  -1.9894314e+02
   4.5700000e-01  -2.7170247e+02
   4.5800000e-01  -3.0595570e+02
   4.5900000e-01  -2.9864222e+02
   4.6000000e-01  -2.4986290e+02
   4.6100000e-01  -1.6582933e+02
   4.6200000e-01  -6.1186187e+01
   4.6300000e-01   5.1214979e+01
   4.6400000e-01   1.5568323e+02
   4.6500000e-01   2.3598058e+02
   4.6600000e-01   2.8382397e+02
   4.6700000e-01   2.9160797e+02
   4.6800000e-01   2.5678220e+02
   4.6900000e-01   1.8536829e+02
   4.7000000e-01   8.5360282e+01
   4.7100000e-01  -2.8608652e+01
   4.7200000e-01  -1.3855105e+02
   4.7300000e-01  -2.3107879e+02
   4.7400000e-01  -2.9224084e+02
   4.7500000e-01  -3.1382931e+02
   4.7600000e-01  -2.9649797e+02
   4.7700000e-01  -2.3973846e+02
   4.7800000e-01  -1.5151884e+02
   4.7900000e-01  -4.5714858e+01
   4.8000000e-01   6.4816021e+01
   4.8100000e-01   1.6223473e+02
   4.8200000e-01   2.3144611e+02
   4.8300000e-01   2.6427529e+02
   4.8400000e-01   2.5398084e+02
   4.8500000e-01   2.0282352e+02
   4.8600000e-01   1.1902385e+02
   4.8700000e-01   1.1211279e+01
   4.8800000e-01  -1.0321631e+02
   4.8900000e-01  -2.0777436e+02
   4.9000000e-01  -2.8999980e+02
   4.9100000e-01  -3.3514258e+02
   4.9200000e-01  -3.3699277e+02
   4.9300000e-01  -2.9524790e+02
   4.9400000e-01  -2.1231538e+02
   4.9500000e-01  -1.0040175e+02
   4.9600000e-01   2.5554000e+01
   4.9700000e-01   1.4961250e+02
   4.9800000e-01   2.5323780e+02
   4.9900000e-01   3.2561155e+02
   5.0000000e-01   3.6022057e+02
   5.0100000e-01   3.5269619e+02
   5.0200000e-01   3.0945143e+02
   5.0300000e-01   2.3814598e+02
   5.0400000e-01   1.4946420e+02
   5.0500000e-01   6.0407958e+01
   5.0600000e-01  -1.5357905e+01
   5.0700000e-01  -6.5318477e+01
   5.0800000e-01  -7.8966444e+01
   5.0900000e-01  -5.4381776e+01
   5.1000000e-01   7.9727065e+00
   5.1100000e-01   1.0237082e+02
   5.1200000e-01   2.1464721e+02
   5.1300000e-01   3.3168294e+02
   5.1400000e-01   4.3668285e+02
   5.1500000e-01   5.1185132e+02
   5.1600000e-01   5.4777573e+02
   5.1700000e-01   5.3682640e+02
   5.1800000e-01   4.7732819e+02
   5.1900000e-01   3.7662007e+02
   5.2000000e-01   2.4414765e+02
   5.2100000e-01   9.5822179e+01
   5.2200000e-01  -4.8908987e+01
   5.2300000e-01  -1.7439932e+02
   5.2400000e-01  -2.6414956e+02
   5.2500000e-01  -3.0782527e+02
   5.2600000e-01  -3.0491407e+02
   5.2700000e-01  -2.5563482e+02
   5.2800000e-01  -1.6962282e+02
   5.2900000e-01  -6.1989532e+01
   5.3000000e-01   5.3255366e+01
   5.3100000e-01   1.5757506e+02
   5.3200000e-01   2.3531578e+02
   5.3300000e-01   2.7670020e+02
   5.3400000e-01   2.7378918e+02
   5.3500000e-01   2.2852519e+02
   5.3600000e-01   1.4872159e+02
   5.3700000e-01   4.3308632e+01
   5.3800000e-01  -7.0213895e+01
   5.3900000e-01  -1.7599935e+02
   5.4000000e-01  -2.6119630e+02
   5.4100000e-01  -3.1054996e+02
   5.4200000e-01  -3.1804846e+02
   5.4300000e-01  -2.8351171e+02
   5.4400000e-01  -2.1013272e+02
   5.4500000e-01  -1.1066116e+02
   5.4600000e-01   1.3053816e+00
   5.4700000e-01   1.1152190e+02
   5.4800000e-01   2.0232898e+02
   5.4900000e-01   2.6287772e+02
   5.5000000e-01   2.8517001e+02
   5.5100000e-01   2.6323569e+02
   5.5200000e-01   2.0310861e+02
   5.5300000e-01   1.1261176e+02
   5.5400000e-01   2.6930818e+00
   5.5500000e-01  -1.0937493e+02
   5.5600000e-01  -2.0925438e+02
   5.5700000e-01  -2.8292647e+02
   5.5800000e-01  -3.1786446e+02
   5.5900000e-01  -3.1066863e+02
   5.6000000e-01  -2.6173978e+02
   5.6100000e-01  -1.7779661e+02
   5.6200000e-01  -7.3777411e+01
   5.6300000e-01   3.7730195e+01
   5.6400000e-01   1.4164243e+02
   5.6500000e-01   2.2203565e+02
   5.6600000e-01   2.7043705e+02
   5.6700000e-01   2.7874273e+02
   5.6800000e-01   2.4405044e+02
   5.6900000e-01   1.7244842e+02
   5.7000000e-01   7.2353163e+01
   5.7100000e-01  -4.1321554e+01
   5.7200000e-01  -1.5070031e+02
   5.7300000e-01  -2.4245681e+02
   5.7400000e-01  -3.0265121e+02
   5.7500000e-01  -3.2283538e+02
   5.7600000e-01  -3.0302098e+02
   5.7700000e-01  -2.4280000e+02
   5.7800000e-01  -1.5056926e+02
   5.7900000e-01  -4.0600752e+01
   5.8000000e-01   7.3370809e+01
   5.8100000e-01   1.7337059e+02
   5.8200000e-01   2.4479565e+02
   5.8300000e-01   2.7961600e+02
   5.8400000e-01   2.7175357e+02
   5.8500000e-01   2.2362209e+02
   5.8600000e-01   1.4275130e+02
   5.8700000e-01   3.7594692e+01
   5.8800000e-01  -7.5241408e+01
   5.8900000e-01  -1.7980324e+02
   5.9000000e-01  -2.6322157e+02
   5.9100000e-01  -3.1113394e+02
   5.9200000e-01  -3.1779287e+02
   5.9300000e-01  -2.8333330e+02
   5.9400000e-01  -2.1077778e+02
   5.9500000e-01  -1.1183244e+02
   5.9600000e-01   4.0115674e-02
   5.9700000e-01   1.1045427e+02
   5.9800000e-01   2.0165250e+02
   5.9900000e-01   2.6220974e+02
   6.0000000e-01   2.8416934e+02
   6.0100000e-01   2.6186327e+02
   6.0200000e-01   2.0132241e+02
   6.0300000e-01   1.1058604e+02
   6.0400000e-01   7.8974149e-01
   6.0500000e-01  -1.1076428e+02
   6.0600000e-01  -2.0995893e+02
   6.0700000e-01  -2.8323734e+02
   6.0800000e-01  -3.1854344e+02
   6.0900000e-01  -3.1254798e+02
   6.1000000e-01  -2.6504264e+02
   6.1100000e-01  -1.8180180e+02
   6.1200000e-01  -7.7071376e+01
   6.1300000e-01   3.6487056e+01
   6.1400000e-01   1.4290743e+02
   6.1500000e-01   2.2509959e+02
   6.1600000e-01   2.7388493e+02
   6.1700000e-01   2.8140825e+02
   6.1800000e-01   2.4576683e+02
   6.1900000e-01   1.7408294e+02
   6.2000000e-01   7.5117230e+01
   6.2100000e-01  -3.6799348e+01
   6.2200000e-01  -1.4484634e+02
   6.2300000e-01  -2.3642129e+02
   6.2400000e-01  -2.9748305e+02
   6.2500000e-01  -3.1883268e+02
   6.2600000e-01  -2.9975209e+02
   6.2700000e-01  -2.3971918e+02
   6.2800000e-01  -1.4762814e+02
   6.2900000e-01  -3.8342312e+01
   6.3000000e-01   7.4267950e+01
   6.3100000e-01   1.7268523e+02
   6.3200000e-01   2.4298545e+02
   6.3300000e-01   2.7752963e+02
   6.3400000e-01   2.7008550e+02
   6.3500000e-01   2.2251182e+02
   6.3600000e-01   1.4177590e+02
   6.3700000e-01   3.6108453e+01
   6.3800000e-01  -7.7619639e+01
   6.3900000e-01  -1.8284720e+02
   6.4000000e-01  -2.6613762e+02
   6.4100000e-01  -3.1304181e+02
   6.4200000e-01  -3.1836973e+02
   6.4300000e-01  -2.8318363e+02
   6.4400000e-01  -2.1115709e+02
   6.4500000e-01  -1.1379883e+02
   6.4600000e-01  -3.5456947e+00
   6.4700000e-01   1.0635505e+02
   6.4800000e-01   1.9852818e+02
   6.4900000e-01   2.6086406e+02
   6.5000000e-01   2.8416934e+02
   6.5100000e-01   2.6192952e+02
   6.5200000e-01   2.0033716e+02
   6.5300000e-01   1.0833847e+02
   6.5400000e-01  -2.0348129e+00
   6.5500000e-01  -1.1323019e+02
   6.5600000e-01  -2.1154968e+02
   6.5700000e-01  -2.8399445e+02
   6.5800000e-01  -3.1871050e+02
   6.5900000e-01  -3.1219703e+02
   6.6000000e-01  -2.6400743e+02
   6.6100000e-01  -1.7989952e+02
   6.6200000e-01  -7.4362463e+01
   6.6300000e-01   3.9629840e+01
   6.6400000e-01   1.4584941e+02
   6.6500000e-01   2.2704753e+02
   6.6600000e-01   2.7414591e+02
   6.6700000e-01   2.7982829e+02
   6.6800000e-01   2.4305769e+02
   6.6900000e-01   1.7158575e+02
   6.7000000e-01   7.3910705e+01
   6.7100000e-01  -3.6770667e+01
   6.7200000e-01  -1.4469913e+02
   6.7300000e-01  -2.3721124e+02
   6.7400000e-01  -2.9904598e+02
   6.7500000e-01  -3.1983336e+02
   6.7600000e-01  -2.9904507e+02
   6.7700000e-01  -2.3765923e+02
   6.7800000e-01  -1.4583652e+02
   6.7900000e-01  -3.8016941e+01
   6.8000000e-01   7.3805247e+01
   6.8100000e-01   1.7355423e+02
   6.8200000e-01   2.4669135e+02
   6.8300000e-01   2.8334252e+02
   6.8400000e-01   2.7560665e+02
   6.8500000e-01   2.2597043e+02
   6.8600000e-01   1.4379858e+02
   6.8700000e-01   3.9150485e+01
   6.8800000e-01  -7.1699468e+01
   6.8900000e-01  -1.7471047e+02
   6.9000000e-01  -2.5856382e+02
   6.9100000e-01  -3.0860915e+02
   6.9200000e-01  -3.1738076e+02
   6.9300000e-01  -2.8357511e+02
   6.9400000e-01  -2.1026553e+02
   6.9500000e-01  -1.1032984e+02
   6.9600000e-01   1.7730783e+00
   6.9700000e-01   1.1162594e+02
   6.9800000e-01   2.0210830e+02
   6.9900000e-01   2.6228371e+02
   7.0000000e-01   2.8416934e+02
   7.0100000e-01   2.6184858e+02
   7.0200000e-01   2.0128678e+02
   7.0300000e-01   1.1060775e+02
   7.0400000e-01   9.2825456e-01
   7.0500000e-01  -1.1064486e+02
   7.0600000e-01  -2.1009584e+02
   7.0700000e-01  -2.8361163e+02
   7.0800000e-01  -3.1872763e+02
   7.0900000e-01  -3.1206603e+02
   7.1000000e-01  -2.6393149e+02
   7.1100000e-01  -1.8074161e+02
   7.1200000e-01  -7.6832087e+01
   7.1300000e-01   3.5787076e+01
   7.1400000e-01   1.4191795e+02
   7.1500000e-01   2.2457340e+02
   7.1600000e-01   2.7388996e+02
   7.1700000e-01   2.8126021e+02
   7.1800000e-01   2.4477204e+02
   7.1900000e-01   1.7225881e+02
   7.2000000e-01   7.3088731e+01
   7.2100000e-01  -3.8593997e+01
   7.2200000e-01  -1.4672630e+02
   7.2300000e-01  -2.3911571e+02
   7.2400000e-01  -3.0120788e+02
   7.2500000e-01  -3.2283538e+02
   7.2600000e-01  -3.0288640e+02
   7.2700000e-01  -2.4147232e+02
   7.2800000e-01  -1.4851784e+02
   7.2900000e-01  -3.9246547e+01
   7.3000000e-01   7.3130788e+01
   7.3100000e-01   1.7200926e+02
   7.3200000e-01   2.4358660e+02
   7.3300000e-01   2.7934182e+02
   7.3400000e-01   2.7198938e+02
   7.3500000e-01   2.2321592e+02
   7.3600000e-01   1.4091479e+02
   7.3700000e-01   3.4528451e+01
   7.3800000e-01  -7.8642672e+01
   7.3900000e-01  -1.8272976e+02
   7.4000000e-01  -2.6547588e+02
   7.4100000e-01  -3.1306963e+02
   7.4200000e-01  -3.1989482e+02
   7.4300000e-01  -2.8586898e+02
   7.4400000e-01  -2.1369459e+02
   7.4500000e-01  -1.1484262e+02
   7.4600000e-01  -2.6856612e+00
   7.4700000e-01   1.0830664e+02
   7.4800000e-01   2.0013641e+02
   7.4900000e-01   2.6111303e+02
   7.5000000e-01   2.8316866e+02
   7.5100000e-01   2.6075593e+02
   7.5200000e-01   2.0018239e+02
   7.5300000e-01   1.0965029e+02
   7.5400000e-01   2.2484578e-01
   7.5500000e-01  -1.1095463e+02
   7.5600000e-01  -2.0980469e+02
   7.5700000e-01  -2.8256899e+02
   7.5800000e-01  -3.1694314e+02
   7.5900000e-01  -3.0970803e+02
   7.6000000e-01  -2.6118985e+02
   7.6100000e-01  -1.7775656e+02
   7.6200000e-01  -7.3833618e+01
   7.6300000e-01   3.8421268e+01
   7.6400000e-01   1.4382662e+02
   7.6500000e-01   2.2569707e+02
   7.6600000e-01   2.7468991e+02
   7.6700000e-01   2.8247012e+02
   7.6800000e-01   2.4684474e+02
   7.6900000e-01   1.7508322e+02
   7.7000000e-01   7.6142203e+01
   7.7100000e-01  -3.5709725e+01
   7.7200000e-01  -1.4381492e+02
   7.7300000e-01  -2.3552624e+02
   7.7400000e-01  -2.9638247e+02
   7.7500000e-01  -3.1683134e+02
   7.7600000e-01  -2.9649119e+02
   7.7700000e-01  -2.3565420e+02
   7.7800000e-01  -1.4375135e+02
   7.7900000e-01  -3.5193869e+01
   7.8000000e-01   7.7480069e+01
   7.8100000e-01   1.7771922e+02
   7.8200000e-01   2.5120634e+02
   7.8300000e-01   2.8881466e+02
   7.8400000e-01   2.8288755e+02
   7.8500000e-01   2.3516597e+02
   7.8600000e-01   1.5381675e+02
   7.8700000e-01   4.8338200e+01
   7.8800000e-01  -6.4083698e+01
   7.8900000e-01  -1.6767887e+02
   7.9000000e-01  -2.5005177e+02
   7.9100000e-01  -2.9691322e+02
   7.9200000e-01  -3.0236674e+02
   7.9300000e-01  -2.6662239e+02
   7.9400000e-01  -1.9303995e+02
   7.9500000e-01  -9.3681678e+01
   7.9600000e-01   1.8093219e+01
   7.9700000e-01   1.2843322e+02
   7.9800000e-01   2.1990063e+02
   7.9900000e-01   2.8093438e+02
   8.0000000e-01   3.0318215e+02
   8.0100000e-01   2.8075603e+02
   8.0200000e-01   2.2008837e+02
   8.0300000e-01   1.2973545e+02
   8.0400000e-01   2.0912155e+01
   8.0500000e-01  -8.9396345e+01
   8.0600000e-01  -1.8750592e+02
   8.0700000e-01  -2.5988193e+02
   8.0800000e-01  -2.9402920e+02
   8.0900000e-01  -2.8641082e+02
   8.1000000e-01  -2.3717847e+02
   8.1100000e-01  -1.5283747e+02
   8.1200000e-01  -4.8199029e+01
   8.1300000e-01   6.4383621e+01
   8.1400000e-01   1.6984346e+02
   8.1500000e-01   2.5181680e+02
   8.1600000e-01   3.0125994e+02
   8.1700000e-01   3.0969851e+02
   8.1800000e-01   2.7445602e+02
   8.1900000e-01   2.0242479e+02
   8.2000000e-01   1.0265508e+02
   8.2100000e-01  -9.9131958e+00
   8.2200000e-01  -1.1794098e+02
   8.2300000e-01  -2.0878764e+02
   8.2400000e-01  -2.6866362e+02
   8.2500000e-01  -2.8881246e+02
   8.2600000e-01  -2.6898793e+02
   8.2700000e-01  -2.0870325e+02
   8.2800000e-01  -1.1662258e+02
   8.2900000e-01  -7.2544673e+00
   8.3000000e-01   1.0585472e+02
   8.3100000e-01   2.0504977e+02
   8.3200000e-01   2.7597006e+02
   8.3300000e-01   3.1063768e+02
   8.3400000e-01   3.0275329e+02
   8.3500000e-01   2.5461100e+02
   8.3600000e-01   1.7376542e+02
   8.3700000e-01   6.8634194e+01
   8.3800000e-01  -4.4166279e+01
   8.3900000e-01  -1.4880742e+02
   8.4000000e-01  -2.3255781e+02
   8.4100000e-01  -2.8089003e+02
   8.4200000e-01  -2.8787023e+02
   8.4300000e-01  -2.5350670e+02
   8.4400000e-01  -1.8082293e+02
   8.4500000e-01  -8.1818555e+01
   8.4600000e-01   2.9803751e+01
   8.4700000e-01   1.3963294e+02
   8.4800000e-01   2.3006772e+02
   8.4900000e-01   2.9012948e+02
   8.5000000e-01   3.1218821e+02
   8.5100000e-01   2.9047937e+02
   8.5200000e-01   2.3079373e+02
   8.5300000e-01   1.4069830e+02
   8.5400000e-01   3.1032423e+01
   8.5500000e-01  -8.0684152e+01
   8.5600000e-01  -1.7993723e+02
   8.5700000e-01  -2.5275268e+02
   8.5800000e-01  -2.8696188e+02
   8.5900000e-01  -2.7974294e+02
   8.6000000e-01  -2.3156420e+02
   8.6100000e-01  -1.4867393e+02
   8.6200000e-01  -4.5318698e+01
   8.6300000e-01   6.6574417e+01
   8.6400000e-01   1.7183183e+02
   8.6500000e-01   2.5366485e+02
   8.6600000e-01   3.0270677e+02
   8.6700000e-01   3.1043633e+02
   8.6800000e-01   2.7441219e+02
   8.6900000e-01   2.0171060e+02
   8.7000000e-01   1.0124443e+02
   8.7100000e-01  -1.2308941e+01
   8.7200000e-01  -1.2164609e+02
   8.7300000e-01  -2.1366431e+02
   8.7400000e-01  -2.7377758e+02
   8.7500000e-01  -2.9281516e+02
   8.7600000e-01  -2.7101186e+02
   8.7700000e-01  -2.0906804e+02
   8.7800000e-01  -1.1669851e+02
   8.7900000e-01  -8.4140817e+00
   8.8000000e-01   1.0329870e+02
   8.8100000e-01   2.0196960e+02
   8.8200000e-01   2.7356463e+02
   8.8300000e-01   3.0935517e+02
   8.8400000e-01   3.0200993e+02
   8.8500000e-01   2.5348438e+02
   8.8600000e-01   1.7184303e+02
   8.8700000e-01   6.6239546e+01
   8.8800000e-01  -4.6459162e+01
   8.8900000e-01  -1.5077748e+02
   8.9000000e-01  -2.3439994e+02
   8.9100000e-01  -2.8283446e+02
   8.9200000e-01  -2.8986021e+02
   8.9300000e-01  -2.5525209e+02
   8.9400000e-01  -1.8207901e+02
   8.9500000e-01  -8.2481354e+01
   8.9600000e-01   2.9829613e+01
   8.9700000e-01   1.4045981e+02
   8.9800000e-01   2.3153960e+02
   8.9900000e-01   2.9147831e+02
   9.0000000e-01   3.1218821e+02
   9.0100000e-01   2.8823346e+02
   9.0200000e-01   2.2649735e+02
   9.0300000e-01   1.3568347e+02
   9.0400000e-01   2.6870210e+01
   9.0500000e-01  -8.3325819e+01
   9.0600000e-01  -1.8168285e+02
   9.0700000e-01  -2.5490256e+02
   9.0800000e-01  -2.9046602e+02
   9.0900000e-01  -2.8458365e+02
   9.1000000e-01  -2.3696599e+02
   9.1100000e-01  -1.5375332e+02
   9.1200000e-01  -4.9560571e+01
   9.1300000e-01   6.3168743e+01
   9.1400000e-01   1.6884823e+02
   9.1500000e-01   2.5044610e+02
   9.1600000e-01   2.9855108e+02
   9.1700000e-01   3.0502699e+02
   9.1800000e-01   2.6824132e+02
   9.1900000e-01   1.9602818e+02
   9.2000000e-01   9.7405392e+01
   9.2100000e-01  -1.3815904e+01
   9.2200000e-01  -1.2172578e+02
   9.2300000e-01  -2.1414191e+02
   9.2400000e-01  -2.7628697e+02
   9.2500000e-01  -2.9781853e+02
   9.2600000e-01  -2.7762679e+02
   9.2700000e-01  -2.1580017e+02
   9.2800000e-01  -1.2242555e+02
   9.2900000e-01  -1.2938904e+01
   9.3000000e-01   9.9352799e+01
   9.3100000e-01   1.9776510e+02
   9.3200000e-01   2.6860074e+02
   9.3300000e-01   3.0358495e+02
   9.3400000e-01   2.9559267e+02
   9.3500000e-01   2.4643147e+02
   9.3600000e-01   1.6394565e+02
   9.3700000e-01   5.7357275e+01
   9.3800000e-01  -5.6144816e+01
   9.3900000e-01  -1.6079508e+02
   9.4000000e-01  -2.4434223e+02
   9.4100000e-01  -2.9270734e+02
   9.4200000e-01  -2.9999271e+02
   9.4300000e-01  -2.6588316e+02
   9.4400000e-01  -1.9305874e+02
   9.4500000e-01  -9.3413870e+01
   9.4600000e-01   1.9094928e+01
   9.4700000e-01   1.2956563e+02
   9.4800000e-01   2.1997969e+02
   9.4900000e-01   2.7926238e+02
   9.5000000e-01   3.0018012e+02
   9.5100000e-01   2.7769750e+02
   9.5200000e-01   2.1812215e+02
   9.5300000e-01   1.2893304e+02
   9.5400000e-01   2.0244480e+01
   9.5500000e-01  -9.1299642e+01
   9.5600000e-01  -1.9145757e+02
   9.5700000e-01  -2.6569039e+02
   9.5800000e-01  -3.0087180e+02
   9.5900000e-01  -2.9357423e+02
   9.6000000e-01  -2.4451765e+02
   9.6100000e-01  -1.6074830e+02
   9.6200000e-01  -5.7074055e+01
   9.6300000e-01   5.4656086e+01
   9.6400000e-01   1.5983978e+02
   9.6500000e-01   2.4213801e+02
   9.6600000e-01   2.9207124e+02
   9.6700000e-01   3.0072465e+02
   9.6800000e-01   2.6542832e+02
   9.6900000e-01   1.9337196e+02
   9.7000000e-01   9.3733233e+01
   9.7100000e-01  -1.8885389e+01
   9.7200000e-01  -1.2766628e+02
   9.7300000e-01  -2.1997957e+02
   9.7400000e-01  -2.8128516e+02
   9.7500000e-01  -3.0182122e+02
   9.7600000e-01  -2.8094195e+02
   9.7700000e-01  -2.1884500e+02
   9.7800000e-01  -1.2542257e+02
   9.7900000e-01  -1.5933684e+01
   9.8000000e-01   9.6348476e+01
   9.8100000e-01   1.9478662e+02
   9.8200000e-01   2.6582622e+02
   9.8300000e-01   3.0134147e+02
   9.8400000e-01   2.9410109e+02
   9.8500000e-01   2.4548372e+02
   9.8600000e-01   1.6298087e+02
   9.8700000e-01   5.5968533e+01
   9.8800000e-01  -5.7708975e+01
   9.8900000e-01  -1.6167204e+02
   9.9000000e-01  -2.4380212e+02
   9.9100000e-01  -2.9093736e+02
   9.9200000e-01  -2.9810082e+02
   9.9300000e-01  -2.6506907e+02
   9.9400000e-01  -1.9364289e+02
   9.9500000e-01  -9.4607895e+01
   9.9600000e-01   1.8487373e+01
   9.9700000e-01   1.3026205e+02
   9.9800000e-01   2.2191213e+02
   9.9900000e-01   2.8194219e+02
   1.0000000e+00   3.0318215e+02
   1.0010000e+00   2.8072840e+02
   1.0020000e+00   2.2077797e+02
   1.0030000e+00   1.3069744e+02
   1.0040000e+00   2.0877504e+01
   1.0050000e+00  -9.1345700e+01
   1.0060000e+00  -1.9118488e+02
   1.0070000e+00  -2.6426195e+02
   1.0080000e+00  -2.9818632e+02
   1.0090000e+00  -2.9016146e+02
   1.0100000e+00  -2.4086357e+02
   1.0110000e+00  -1.5680019e+02
   1.0120000e+00  -5.2514906e+01
   1.0130000e+00   5.9759416e+01
   1.0140000e+00   1.6477656e+02
   1.0150000e+00   2.4603118e+02
   1.0160000e+00   2.9466458e+02
   1.0170000e+00   3.0255949e+02
   1.0180000e+00   2.6723160e+02
   1.0190000e+00   1.9537745e+02
   1.0200000e+00   9.5578879e+01
   1.0210000e+00  -1.7564749e+01
   1.0220000e+00  -1.2667223e+02
   1.0230000e+00  -2.1873895e+02
   1.0240000e+00  -2.7949409e+02
   1.0250000e+00  -2.9981988e+02
   1.0260000e+00  -2.7938660e+02
   1.0270000e+00  -2.1786899e+02
   1.0280000e+00  -1.2429904e+02
   1.0290000e+00  -1.3602491e+01
   1.0300000e+00   1.0046265e+02
   1.0310000e+00   2.0031246e+02
   1.0320000e+00   2.7185545e+02
   1.0330000e+00   3.0733277e+02
   1.0340000e+00   3.0031993e+02
   1.0350000e+00   2.5272130e+02
   1.0360000e+00   1.7180851e+02
   1.0370000e+00   6.6103127e+01
   1.0380000e+00  -4.7226645e+01
   1.0390000e+00  -1.5175764e+02
   1.0400000e+00  -2.3463624e+02
   1.0410000e+00  -2.8169272e+02
   1.0420000e+00  -2.8753765e+02
   1.0430000e+00  -2.5244919e+02
   1.0440000e+00  -1.7917349e+02
   1.0450000e+00  -7.9250130e+01
   1.0460000e+00   3.3798456e+01
   1.0470000e+00   1.4529373e+02
   1.0480000e+00   2.3700694e+02
   1.0490000e+00   2.9748548e+02
   1.0500000e+00   3.1919293e+02
   1.0510000e+00   2.9694902e+02
   1.0520000e+00   2.3724259e+02
   1.0530000e+00   1.4794059e+02
   1.0540000e+00   3.9537367e+01
   1.0550000e+00  -7.1070369e+01
   1.0560000e+00  -1.6974098e+02
   1.0570000e+00  -2.4234669e+02
   1.0580000e+00  -2.7618737e+02
   1.0590000e+00  -2.6810827e+02
   1.0600000e+00  -2.1874405e+02
   1.0610000e+00  -1.3476526e+02
   1.0620000e+00  -3.0669814e+01
   1.0630000e+00   8.1830928e+01
   1.0640000e+00   1.8795687e+02
   1.0650000e+00   2.7096747e+02
   1.0660000e+00   3.2116069e+02
   1.0670000e+00   3.2964841e+02
   1.0680000e+00   2.9407551e+02
   1.0690000e+00   2.2213124e+02
   1.0700000e+00   1.2323633e+02
   1.0710000e+00   1.1830988e+01
   1.0720000e+00  -9.5812775e+01
   1.0730000e+00  -1.8783419e+02
   1.0740000e+00  -2.5011899e+02
   1.0750000e+00  -2.7280167e+02
   1.0760000e+00  -2.5474309e+02
   1.0770000e+00  -1.9530123e+02
   1.0780000e+00  -1.0374571e+02
   1.0790000e+00   4.8630269e+00
   1.0800000e+00   1.1714163e+02
   1.0810000e+00   2.1599420e+02
   1.0820000e+00   2.8743271e+02
   1.0830000e+00   3.2324307e+02
   1.0840000e+00   3.1642861e+02
   1.0850000e+00   2.6878157e+02
   1.0860000e+00   1.8781495e+02
   1.0870000e+00   8.2222876e+01
   1.0880000e+00  -3.0996591e+01
   1.0890000e+00  -1.3580354e+02
   1.0900000e+00  -2.1938621e+02
   1.0910000e+00  -2.6723611e+02
   1.0920000e+00  -2.7373368e+02
   1.0930000e+00  -2.3935561e+02
   1.0940000e+00  -1.6735862e+02
   1.0950000e+00  -6.9364160e+01
   1.0960000e+00   4.1957045e+01
   1.0970000e+00   1.5310921e+02
   1.0980000e+00   2.4642617e+02
   1.0990000e+00   3.0981391e+02
   1.1000000e+00   3.3420305e+02
   1.1010000e+00   3.1320285e+02
   1.1020000e+00   2.5318072e+02
   1.1030000e+00   1.6263200e+02
   1.1040000e+00   5.2699402e+01
   1.1050000e+00  -5.9736380e+01
   1.1060000e+00  -1.6101192e+02
   1.1070000e+00  -2.3714230e+02
   1.1080000e+00  -2.7493169e+02
   1.1090000e+00  -2.7031342e+02
   1.1100000e+00  -2.2327792e+02
   1.1110000e+00  -1.4065091e+02
   1.1120000e+00  -3.7597070e+01
   1.1130000e+00   7.3521818e+01
   1.1140000e+00   1.7771630e+02
   1.1150000e+00   2.5860974e+02
   1.1160000e+00   3.0701190e+02
   1.1170000e+00   3.1431709e+02
   1.1180000e+00   2.7809195e+02
   1.1190000e+00   2.0553427e+02
   1.1200000e+00   1.0552605e+02
   1.1210000e+00  -7.6608209e+00
   1.1220000e+00  -1.1739932e+02
   1.1230000e+00  -2.1095600e+02
   1.1240000e+00  -2.7341166e+02
   1.1250000e+00  -2.9481650e+02
   1.1260000e+00  -2.7473071e+02
   1.1270000e+00  -2.1370088e+02
   1.1280000e+00  -1.2178777e+02
   1.1290000e+00  -1.3858515e+01
   1.1300000e+00   9.7487320e+01
   1.1310000e+00   1.9582534e+02
   1.1320000e+00   2.6715759e+02
   1.1330000e+00   3.0255932e+02
   1.1340000e+00   2.9443300e+02
   1.1350000e+00   2.4475246e+02
   1.1360000e+00   1.6194198e+02
   1.1370000e+00   5.5746517e+01
   1.1380000e+00  -5.6548119e+01
   1.1390000e+00  -1.5962236e+02
   1.1400000e+00  -2.4185748e+02
   1.1410000e+00  -2.8962424e+02
   1.1420000e+00  -2.9716710e+02
   1.1430000e+00  -2.6400197e+02
   1.1440000e+00  -1.9247522e+02
   1.1450000e+00  -9.4063353e+01
   1.1460000e+00   1.7744848e+01
   1.1470000e+00   1.2839351e+02
   1.1480000e+00   2.1991105e+02
   1.1490000e+00   2.8084411e+02
   1.1500000e+00   3.0318215e+02
   1.1510000e+00   2.8109799e+02
   1.1520000e+00   2.2056390e+02
   1.1530000e+00   1.2948032e+02
   1.1540000e+00   1.8979150e+01
   1.1550000e+00  -9.3378187e+01
   1.1560000e+00  -1.9319281e+02
   1.1570000e+00  -2.6665810e+02
   1.1580000e+00  -3.0168309e+02
   1.1590000e+00  -2.9527712e+02
   1.1600000e+00  -2.4762003e+02
   1.1610000e+00  -1.6472182e+02
   1.1620000e+00  -6.0793398e+01
   1.1630000e+00   5.1938404e+01
   1.1640000e+00   1.5788310e+02
   1.1650000e+00   2.3998819e+02
   1.1660000e+00   2.8887798e+02
   1.1670000e+00   2.9637436e+02
   1.1680000e+00   2.6045675e+02
   1.1690000e+00   1.8833765e+02
   1.1700000e+00   8.8728044e+01
   1.1710000e+00  -2.4187578e+01
   1.1720000e+00  -1.3354951e+02
   1.1730000e+00  -2.2619555e+02
   1.1740000e+00  -2.8714919e+02
   1.1750000e+00  -3.0682459e+02
   1.1760000e+00  -2.8530126e+02
   1.1770000e+00  -2.2364288e+02
   1.1780000e+00  -1.3185154e+02
   1.1790000e+00  -2.4234603e+01
   1.1800000e+00   8.7156691e+01
   1.1810000e+00   1.8628287e+02
   1.1820000e+00   2.5903782e+02
   1.1830000e+00   2.9603913e+02
   1.1840000e+00   2.8948108e+02
   1.1850000e+00   2.4127751e+02
   1.1860000e+00   1.5980844e+02
   1.1870000e+00   5.4605774e+01
   1.1880000e+00  -5.7613607e+01
   1.1890000e+00  -1.6179493e+02
   1.1900000e+00  -2.4586398e+02
   1.1910000e+00  -2.9519756e+02
   1.1920000e+00  -3.0317434e+02
   1.1930000e+00  -2.6943812e+02
   1.1940000e+00  -1.9737084e+02
   1.1950000e+00  -9.9712313e+01
   1.1960000e+00   9.4867702e+00
   1.1970000e+00   1.1629096e+02
   1.1980000e+00   2.0377646e+02
   1.1990000e+00   2.6132836e+02
   1.2000000e+00   2.8116732e+02
   1.2010000e+00   2.5690091e+02
   1.2020000e+00   1.9420732e+02
   1.2030000e+00   1.0095175e+02
   1.2040000e+00  -1.1831312e+01
   1.2050000e+00  -1.2630196e+02
   1.2060000e+00  -2.2823709e+02
   1.2070000e+00  -3.0425595e+02
   1.2080000e+00  -3.4192117e+02
   1.2090000e+00  -3.3783939e+02
   1.2100000e+00  -2.9129154e+02
   1.2110000e+00  -2.0707378e+02
   1.2120000e+00  -9.9429963e+01
   1.2130000e+00   1.9216096e+01
   1.2140000e+00   1.3273036e+02
   1.2150000e+00   2.2294002e+02
   1.2160000e+00   2.8057435e+02
   1.2170000e+00   2.9752716e+02
   1.2180000e+00   2.7131049e+02
   1.2190000e+00   2.0903817e+02
   1.2200000e+00   1.1879080e+02
   1.2210000e+00   1.4277278e+01
   1.2220000e+00  -8.7241553e+01
   1.2230000e+00  -1.7223740e+02
   1.2240000e+00  -2.2516221e+02
   1.2250000e+00  -2.3577673e+02
   1.2260000e+00  -2.0375052e+02
   1.2270000e+00  -1.2968307e+02
   1.2280000e+00  -2.3381331e+01
   1.2290000e+00   1.0053246e+02
   1.2300000e+00   2.2934560e+02
   1.2310000e+00   3.4636145e+02
   1.2320000e+00   4.3698029e+02
   1.2330000e+00   4.9149055e+02
   1.2340000e+00   5.0159739e+02
   1.2350000e+00   4.6840761e+02
   1.2360000e+00   3.9969934e+02
   1.2370000e+00   3.0498912e+02
   1.2380000e+00   2.0155693e+02
   1.2390000e+00   1.0522700e+02
   1.2400000e+00   2.8172151e+01
   1.2410000e+00  -1.5901721e+01
   1.2420000e+00  -2.1632613e+01
   1.2430000e+00   1.0322334e+01
   1.2440000e+00   7.6079955e+01
   1.2450000e+00   1.6292385e+02
   1.2460000e+00   2.5679914e+02
   1.2470000e+00   3.4354375e+02
   1.2480000e+00   4.0643675e+02
   1.2490000e+00   4.3574757e+02
   1.2500000e+00   4.2526439e+02
   1.2510000e+00   3.7084123e+02
   1.2520000e+00   2.7998638e+02
   1.2530000e+00   1.6180958e+02
   1.2540000e+00   2.8459845e+01
   1.2550000e+00  -1.0174740e+02
   1.2560000e+00  -2.1417746e+02
   1.2570000e+00  -2.9503199e+02
   1.2580000e+00  -3.3271257e+02
   1.2590000e+00  -3.2524137e+02
   1.2600000e+00  -2.7370869e+02
   1.2610000e+00  -1.8537808e+02
   1.2620000e+00  -7.5799951e+01
   1.2630000e+00   4.2190747e+01
   1.2640000e+00   1.5223723e+02
   1.2650000e+00   2.3697012e+02
   1.2660000e+00   2.8743204e+02
   1.2670000e+00   2.9532860e+02
   1.2680000e+00   2.5892389e+02
   1.2690000e+00   1.8586411e+02
   1.2700000e+00   8.4900101e+01
   1.2710000e+00  -2.8992920e+01
   1.2720000e+00  -1.3858013e+02
   1.2730000e+00  -2.3117486e+02
   1.2740000e+00  -2.9191945e+02
   1.2750000e+00  -3.1182796e+02
   1.2760000e+00  -2.9129094e+02
   1.2770000e+00  -2.3044088e+02
   1.2780000e+00  -1.3887422e+02
   1.2790000e+00  -3.0907368e+01
   1.2800000e+00   8.1045282e+01
   1.2810000e+00   1.8013783e+02
   1.2820000e+00   2.5196296e+02
   1.2830000e+00   2.8752619e+02
   1.2840000e+00   2.7954335e+02
   1.2850000e+00   2.3020086e+02
   1.2860000e+00   1.4788214e+02
   1.2870000e+00   4.2012307e+01
   1.2880000e+00  -7.0654466e+01
   1.2890000e+00  -1.7475753e+02
   1.2900000e+00  -2.5803338e+02
   1.2910000e+00  -3.0609824e+02
   1.2920000e+00  -3.1274637e+02
   1.2930000e+00  -2.7789028e+02
   1.2940000e+00  -2.0486503e+02
   1.2950000e+00  -1.0588741e+02
   1.2960000e+00   5.5377368e+00
   1.2970000e+00   1.1550216e+02
   1.2980000e+00   2.0670791e+02
   1.2990000e+00   2.6774267e+02
   1.3000000e+00   2.9017338e+02
   1.3010000e+00   2.6784642e+02
   1.3020000e+00   2.0681412e+02
   1.3030000e+00   1.1545504e+02
   1.3040000e+00   5.1905598e+00
   1.3050000e+00  -1.0664080e+02
   1.3060000e+00  -2.0605878e+02
   1.3070000e+00  -2.7948444e+02
   1.3080000e+00  -3.1466259e+02
   1.3090000e+00  -3.0822770e+02
   1.3100000e+00  -2.6022570e+02
   1.3110000e+00  -1.7679323e+02
   1.3120000e+00  -7.2258309e+01
   1.3130000e+00   4.1148564e+01
   1.3140000e+00   1.4799414e+02
   1.3150000e+00   2.3127676e+02
   1.3160000e+00   2.8131961e+02
   1.3170000e+00   2.8955761e+02
   1.3180000e+00   2.5378447e+02
   1.3190000e+00   1.8142312e+02
   1.3200000e+00   8.1742993e+01
   1.3210000e+00  -3.0628441e+01
   1.3220000e+00  -1.3884312e+02
   1.3230000e+00  -2.3028146e+02
   1.3240000e+00  -2.9070250e+02
   1.3250000e+00  -3.1082729e+02
   1.3260000e+00  -2.9036080e+02
   1.3270000e+00  -2.2954854e+02
   1.3280000e+00  -1.3778922e+02
   1.3290000e+00  -2.9586805e+01
   1.3300000e+00   8.2239855e+01
   1.3310000e+00   1.8099070e+02
   1.3320000e+00   2.5257563e+02
   1.3330000e+00   2.8833455e+02
   1.3340000e+00   2.8107857e+02
   1.3350000e+00   2.3264903e+02
   1.3360000e+00   1.5086705e+02
   1.3370000e+00   4.4799210e+01
   1.3380000e+00  -6.8682377e+01
   1.3390000e+00  -1.7388295e+02
   1.3400000e+00  -2.5827012e+02
   1.3410000e+00  -3.0740552e+02
   1.3420000e+00  -3.1506993e+02
   1.3430000e+00  -2.8095288e+02
   1.3440000e+00  -2.0805190e+02
   1.3450000e+00  -1.0848245e+02
   1.3460000e+00   3.8546321e+00
   1.3470000e+00   1.1444063e+02
   1.3480000e+00   2.0573430e+02
   1.3490000e+00   2.6663105e+02
   1.3500000e+00   2.8917271e+02
   1.3510000e+00   2.6724500e+02
   1.3520000e+00   2.0631823e+02
   1.3530000e+00   1.1420898e+02
   1.3540000e+00   2.5274863e+00
   1.3550000e+00  -1.1046215e+02
   1.3560000e+00  -2.0990566e+02
   1.3570000e+00  -2.8222327e+02
   1.3580000e+00  -3.1602121e+02
   1.3590000e+00  -3.0875101e+02
   1.3600000e+00  -2.6049464e+02
   1.3610000e+00  -1.7683652e+02
   1.3620000e+00  -7.1813690e+01
   1.3630000e+00   4.1833665e+01
   1.3640000e+00   1.4783019e+02
   1.3650000e+00   2.2899174e+02
   1.3660000e+00   2.7653654e+02
   1.3670000e+00   2.8318478e+02
   1.3680000e+00   2.4733325e+02
   1.3690000e+00   1.7592430e+02
   1.3700000e+00   7.7266290e+01
   1.3710000e+00  -3.4594374e+01
   1.3720000e+00  -1.4279737e+02
   1.3730000e+00  -2.3460888e+02
   1.3740000e+00  -2.9598412e+02
   1.3750000e+00  -3.1783201e+02
   1.3760000e+00  -2.9940291e+02
   1.3770000e+00  -2.3981205e+02
   1.3780000e+00  -1.4751381e+02
   1.3790000e+00  -3.7261851e+01
   1.3800000e+00   7.6662377e+01
   1.3810000e+00   1.7600090e+02
   1.3820000e+00   2.4628950e+02
   1.3830000e+00   2.7993484e+02
   1.3840000e+00   2.7129728e+02
   1.3850000e+00   2.2302977e+02
   1.3860000e+00   1.4266248e+02
   1.3870000e+00   3.8463735e+01
   1.3880000e+00  -7.3213371e+01
   1.3890000e+00  -1.7669372e+02
   1.3900000e+00  -2.5936752e+02
   1.3910000e+00  -3.0702786e+02
   1.3920000e+00  -3.1390784e+02
   1.3930000e+00  -2.7991237e+02
   1.3940000e+00  -2.0772005e+02
   1.3950000e+00  -1.0878762e+02
   1.3960000e+00   3.4423501e+00
   1.3970000e+00   1.1435783e+02
   1.3980000e+00   2.0589534e+02
   1.3990000e+00   2.6647197e+02
   1.4000000e+00   2.8817204e+02
   1.4010000e+00   2.6546801e+02
   1.4020000e+00   2.0455107e+02
   1.4030000e+00   1.1353569e+02
   1.4040000e+00   3.6061593e+00
   1.4050000e+00  -1.0788384e+02
   1.4060000e+00  -2.0682859e+02
   1.4070000e+00  -2.7974814e+02
   1.4080000e+00  -3.1466802e+02
   1.4090000e+00  -3.0829605e+02
   1.4100000e+00  -2.6040780e+02
   1.4110000e+00  -1.7682647e+02
   1.4120000e+00  -7.1991281e+01
   1.4130000e+00   4.1214096e+01
   1.4140000e+00   1.4680030e+02
   1.4150000e+00   2.2797860e+02
   1.4160000e+00   2.7604714e+02
   1.4170000e+00   2.8341931e+02
   1.4180000e+00   2.4798494e+02
   1.4190000e+00   1.7629458e+02
   1.4200000e+00   7.6642252e+01
   1.4210000e+00  -3.6531750e+01
   1.4220000e+00  -1.4570390e+02
   1.4230000e+00  -2.3744635e+02
   1.4240000e+00  -2.9739315e+02
   1.4250000e+00  -3.1683134e+02
   1.4260000e+00  -2.9604905e+02
   1.4270000e+00  -2.3536924e+02
   1.4280000e+00  -1.4382889e+02
   1.4290000e+00  -3.5653558e+01
   1.4300000e+00   7.6242213e+01
   1.4310000e+00   1.7494927e+02
   1.4320000e+00   2.4641834e+02
   1.4330000e+00   2.8224331e+02
   1.4340000e+00   2.7530832e+02
   1.4350000e+00   2.2708973e+02
   1.4360000e+00   1.4494384e+02
   1.4370000e+00   3.8013557e+01
   1.4380000e+00  -7.6074592e+01
   1.4390000e+00  -1.8076072e+02
   1.4400000e+00  -2.6336908e+02
   1.4410000e+00  -3.1036591e+02
   1.4420000e+00  -3.1684950e+02
   1.4430000e+00  -2.8323570e+02
   1.4440000e+00  -2.1213528e+02
   1.4450000e+00  -1.1450119e+02
   1.4460000e+00  -3.2244923e+00
   1.4470000e+00   1.0734976e+02
   1.4480000e+00   1.9906790e+02
   1.4490000e+00   2.6005809e+02
   1.4500000e+00   2.8216799e+02
   1.4510000e+00   2.5982452e+02
   1.4520000e+00   1.9926788e+02
   1.4530000e+00   1.0860441e+02
   1.4540000e+00  -1.1231629e+00
   1.4550000e+00  -1.1271328e+02
   1.4560000e+00  -2.1199028e+02
   1.4570000e+00  -2.8513489e+02
   1.4580000e+00  -3.1984711e+02
   1.4590000e+00  -3.1284892e+02
   1.4600000e+00  -2.6436267e+02
   1.4610000e+00  -1.8077814e+02
   1.4620000e+00  -7.6743589e+01
   1.4630000e+00   3.5202921e+01
   1.4640000e+00   1.3970054e+02
   1.4650000e+00   2.2041308e+02
   1.4660000e+00   2.6866764e+02
   1.4670000e+00   2.7665267e+02
   1.4680000e+00   2.4211277e+02
   1.4690000e+00   1.7164294e+02
   1.4700000e+00   7.3494922e+01
   1.4710000e+00  -3.8280314e+01
   1.4720000e+00  -1.4673173e+02
   1.4730000e+00  -2.3872915e+02
   1.4740000e+00  -2.9958879e+02
   1.4750000e+00  -3.1983336e+02
   1.4760000e+00  -2.9915918e+02
   1.4770000e+00  -2.3791819e+02
   1.4780000e+00  -1.4570867e+02
   1.4790000e+00  -3.7396550e+01
   1.4800000e+00   7.3860488e+01
   1.4810000e+00   1.7137209e+02
   1.4820000e+00   2.4153172e+02
   1.4830000e+00   2.7640801e+02
   1.4840000e+00   2.6923525e+02
   1.4850000e+00   2.2163061e+02
   1.4860000e+00   1.4077715e+02
   1.4870000e+00   3.5230248e+01
   1.4880000e+00  -7.8058128e+01
   1.4890000e+00  -1.8280672e+02
   1.4900000e+00  -2.6595351e+02
   1.4910000e+00  -3.1301407e+02
   1.4920000e+00  -3.1828922e+02
   1.4930000e+00  -2.8221258e+02
   1.4940000e+00  -2.0823549e+02
   1.4950000e+00  -1.0846661e+02
   1.4960000e+00   3.5043546e+00
   1.4970000e+00   1.1355464e+02
   1.4980000e+00   2.0435329e+02
   1.4990000e+00   2.6484755e+02
   1.5000000e+00   2.8717136e+02
   1.5010000e+00   2.6537745e+02
   1.5020000e+00   2.0520863e+02
   1.5030000e+00   1.1459544e+02
   1.5040000e+00   4.8599503e+00
   1.5050000e+00  -1.0626538e+02
   1.5060000e+00  -2.0443440e+02
   1.5070000e+00  -2.7624627e+02
   1.5080000e+00  -3.1000774e+02
   1.5090000e+00  -3.0272786e+02
   1.5100000e+00  -2.5420026e+02
   1.5110000e+00  -1.6992067e+02
   1.5120000e+00  -6.4003042e+01
   1.5130000e+00   5.0745082e+01
   1.5140000e+00   1.5797350e+02
   1.5150000e+00   2.4023300e+02
   1.5160000e+00   2.8842577e+02
   1.5170000e+00   2.9516974e+02
   1.5180000e+00   2.5912218e+02
   1.5190000e+00   1.8774881e+02
   1.5200000e+00   8.9626794e+01
   1.5210000e+00  -2.1423924e+01
   1.5220000e+00  -1.2891756e+02
   1.5230000e+00  -2.2018138e+02
   1.5240000e+00  -2.8068451e+02
   1.5250000e+00  -3.0082055e+02
   1.5260000e+00  -2.8007634e+02
   1.5270000e+00  -2.1849447e+02
   1.5280000e+00  -1.2547573e+02
   1.5290000e+00  -1.5876905e+01
   1.5300000e+00   9.6992754e+01
   1.5310000e+00   1.9598784e+02
   1.5320000e+00   2.6693714e+02
   1.5330000e+00   3.0165340e+02
   1.5340000e+00   2.9365967e+02
   1.5350000e+00   2.4537690e+02
   1.5360000e+00   1.6471092e+02
   1.5370000e+00   6.0172699e+01
   1.5380000e+00  -5.2104968e+01
   1.5390000e+00  -1.5686305e+02
   1.5400000e+00  -2.4141333e+02
   1.5410000e+00  -2.9064085e+02
   1.5420000e+00  -2.9784672e+02
   1.5430000e+00  -2.6286037e+02
   1.5440000e+00  -1.8920840e+02
   1.5450000e+00  -8.9436835e+01
   1.5460000e+00   2.2727555e+01
   1.5470000e+00   1.3336580e+02
   1.5480000e+00   2.2523428e+02
   1.5490000e+00   2.8698564e+02
   1.5500000e+00   3.1018687e+02
   1.5510000e+00   2.8859338e+02
   1.5520000e+00   2.2827048e+02
   1.5530000e+00   1.3762513e+02
   1.5540000e+00   2.8091337e+01
   1.5550000e+00  -8.2992852e+01
   1.5560000e+00  -1.8182653e+02
   1.5570000e+00  -2.5505084e+02
   1.5580000e+00  -2.9047690e+02
   1.5590000e+00  -2.8466839e+02
   1.5600000e+00  -2.3742239e+02
   1.5610000e+00  -1.5470087e+02
   1.5620000e+00  -5.0956105e+01
   1.5630000e+00   6.1394909e+01
   1.5640000e+00   1.6683314e+02
   1.5650000e+00   2.4857777e+02
   1.5660000e+00   2.9754913e+02
   1.5670000e+00   3.0560684e+02
   1.5680000e+00   2.7048319e+02
   1.5690000e+00   1.9909104e+02
   1.5700000e+00   9.9979823e+01
   1.5710000e+00  -1.2589733e+01
   1.5720000e+00  -1.2161168e+02
   1.5730000e+00  -2.1406621e+02
   1.5740000e+00  -2.7529058e+02
   1.5750000e+00  -2.9581718e+02
   1.5760000e+00  -2.7537494e+02
   1.5770000e+00  -2.1415120e+02
   1.5780000e+00  -1.2157373e+02
   1.5790000e+00  -1.2298382e+01
   1.5800000e+00   1.0067040e+02
   1.5810000e+00   2.0040308e+02
   1.5820000e+00   2.7276014e+02
   1.5830000e+00   3.0916340e+02
   1.5840000e+00   3.0235564e+02
   1.5850000e+00   2.5404304e+02
   1.5860000e+00   1.7194082e+02
   1.5870000e+00   6.5225027e+01
   1.5880000e+00  -4.8733932e+01
   1.5890000e+00  -1.5382971e+02
   1.5900000e+00  -2.3755416e+02
   1.5910000e+00  -2.8581722e+02
   1.5920000e+00  -2.9295232e+02
   1.5930000e+00  -2.5894748e+02
   1.5940000e+00  -1.8666711e+02
   1.5950000e+00  -8.7996802e+01
   1.5960000e+00   2.3313270e+01
   1.5970000e+00   1.3273560e+02
   1.5980000e+00   2.2267344e+02
   1.5990000e+00   2.8230104e+02
   1.6000000e+00   3.0418282e+02
   1.6010000e+00   2.8259295e+02
   1.6020000e+00   2.2301501e+02
   1.6030000e+00   1.3255246e+02
   1.6040000e+00   2.1759230e+01
   1.6050000e+00  -9.1692187e+01
   1.6060000e+00  -1.9263495e+02
   1.6070000e+00  -2.6633757e+02
   1.6080000e+00  -3.0028269e+02
   1.6090000e+00  -2.9191714e+02
   1.6100000e+00  -2.4243699e+02
   1.6110000e+00  -1.5873139e+02
   1.6120000e+00  -5.5109237e+01
   1.6130000e+00   5.6977849e+01
   1.6140000e+00   1.6294128e+02
   1.6150000e+00   2.4616787e+02
   1.6160000e+00   2.9683961e+02
   1.6170000e+00   3.0574019e+02
   1.6180000e+00   2.7003216e+02
   1.6190000e+00   1.9695152e+02
   1.6200000e+00   9.5999689e+01
   1.6210000e+00  -1.7659828e+01
   1.6220000e+00  -1.2672388e+02
   1.6230000e+00  -2.1848725e+02
   1.6240000e+00  -2.7885513e+02
   1.6250000e+00  -2.9881920e+02
   1.6260000e+00  -2.7829881e+02
   1.6270000e+00  -2.1751107e+02
   1.6280000e+00  -1.2579369e+02
   1.6290000e+00  -1.7615277e+01
   1.6300000e+00   9.4231094e+01
   1.6310000e+00   1.9299600e+02
   1.6320000e+00   2.6457862e+02
   1.6330000e+00   3.0034183e+02
   1.6340000e+00   2.9306360e+02
   1.6350000e+00   2.4460197e+02
   1.6360000e+00   1.6285968e+02
   1.6370000e+00   5.7049320e+01
   1.6380000e+00  -5.5722239e+01
   1.6390000e+00  -1.5972568e+02
   1.6400000e+00  -2.4272340e+02
   1.6410000e+00  -2.9074373e+02
   1.6420000e+00  -2.9804301e+02
   1.6430000e+00  -2.6442666e+02
   1.6440000e+00  -1.9254964e+02
   1.6450000e+00  -9.4058328e+01
   1.6460000e+00   1.7481676e+01
   1.6470000e+00   1.2755119e+02
   1.6480000e+00   2.1832402e+02
   1.6490000e+00   2.7850549e+02
   1.6500000e+00   3.0018012e+02
   1.6510000e+00   2.7747638e+02
   1.6520000e+00   2.1621233e+02
   1.6530000e+00   1.2429225e+02
   1.6540000e+00   1.3090341e+01
   1.6550000e+00  -9.9510182e+01
   1.6560000e+00  -1.9896488e+02
   1.6570000e+00  -2.7166639e+02
   1.6580000e+00  -3.0590775e+02
   1.6590000e+00  -2.9888281e+02
   1.6600000e+00  -2.5061541e+02
   1.6610000e+00  -1.6684085e+02
   1.6620000e+00  -6.1781796e+01
   1.6630000e+00   5.1843799e+01
   1.6640000e+00   1.5783570e+02
   1.6650000e+00   2.3899565e+02
   1.6660000e+00   2.8652649e+02
   1.6670000e+00   2.9322450e+02
   1.6680000e+00   2.5777079e+02
   1.6690000e+00   1.8735082e+02
   1.6700000e+00   8.9986951e+01
   1.6710000e+00  -2.1036188e+01
   1.6720000e+00  -1.2955108e+02
   1.6730000e+00  -2.2275771e+02
   1.6740000e+00  -2.8558517e+02
   1.6750000e+00  -3.0782527e+02
   1.6760000e+00  -2.8857472e+02
   1.6770000e+00  -2.2791695e+02
   1.6780000e+00  -1.3566014e+02
   1.6790000e+00  -2.7029007e+01
   1.6800000e+00   8.4624180e+01
   1.6810000e+00   1.8259355e+02
   1.6820000e+00   2.5338977e+02
   1.6830000e+00   2.8911117e+02
   1.6840000e+00   2.8283781e+02
   1.6850000e+00   2.3601306e+02
   1.6860000e+00   1.5573442e+02
   1.6870000e+00   5.0613588e+01
   1.6880000e+00  -6.2287619e+01
   1.6890000e+00  -1.6678385e+02
   1.6900000e+00  -2.5010365e+02
   1.6910000e+00  -2.9803070e+02
   1.6920000e+00  -3.0485419e+02
   1.6930000e+00  -2.7053810e+02
   1.6940000e+00  -1.9788771e+02
   1.6950000e+00  -9.8668708e+01
   1.6960000e+00   1.3371865e+01
   1.6970000e+00   1.2356926e+02
   1.6980000e+00   2.1417177e+02
   1.6990000e+00   2.7420654e+02
   1.7000000e+00   2.9617743e+02
   1.7010000e+00   2.7437809e+02
   1.7020000e+00   2.1435477e+02
   1.7030000e+00   1.2348170e+02
   1.7040000e+00   1.2702104e+01
   1.7050000e+00  -1.0016084e+02
   1.7060000e+00  -2.0029902e+02
   1.7070000e+00  -2.7379952e+02
   1.7080000e+00  -3.0873096e+02
   1.7090000e+00  -3.0213461e+02
   1.7100000e+00  -2.5394773e+02
   1.7110000e+00  -1.6989164e+02
   1.7120000e+00  -6.4334744e+01
   1.7130000e+00   4.9703004e+01
   1.7140000e+00   1.5583773e+02
   1.7150000e+00   2.3694733e+02
   1.7160000e+00   2.8446041e+02
   1.7170000e+00   2.9126509e+02
   1.7180000e+00   2.5578244e+02
   1.7190000e+00   1.8480140e+02
   1.7200000e+00   8.6313126e+01
   1.7210000e+00  -2.5845616e+01
   1.7220000e+00  -1.3466357e+02
   1.7230000e+00  -2.2685698e+02
   1.7240000e+00  -2.8768062e+02
   1.7250000e+00  -3.0782527e+02
   1.7260000e+00  -2.8718797e+02
   1.7270000e+00  -2.2601675e+02
   1.7280000e+00  -1.3362516e+02
   1.7290000e+00  -2.4596099e+01
   1.7300000e+00   8.7978230e+01
   1.7310000e+00   1.8709994e+02
   1.7320000e+00   2.5867848e+02
   1.7330000e+00   2.9434307e+02
   1.7340000e+00   2.8711277e+02
   1.7350000e+00   2.3876638e+02
   1.7360000e+00   1.5689709e+02
   1.7370000e+00   5.0508466e+01
   1.7380000e+00  -6.3137517e+01
   1.7390000e+00  -1.6776859e+02
   1.7400000e+00  -2.5061449e+02
   1.7410000e+00  -2.9763488e+02
   1.7420000e+00  -3.0363536e+02
   1.7430000e+00  -2.6933291e+02
   1.7440000e+00  -1.9797538e+02
   1.7450000e+00  -1.0092076e+02
   1.7460000e+00   9.3212268e+00
   1.7470000e+00   1.1933861e+02
   1.7480000e+00   2.1155642e+02
   1.7490000e+00   2.7385674e+02
   1.7500000e+00   2.9717810e+02
   1.7510000e+00   2.7511094e+02
   1.7520000e+00   2.1393833e+02
   1.7530000e+00   1.2244441e+02
   1.7540000e+00   1.2329564e+01
   1.7550000e+00  -9.8998197e+01
   1.7560000e+00  -1.9778278e+02
   1.7570000e+00  -2.7074209e+02
   1.7580000e+00  -3.0569907e+02
   1.7590000e+00  -2.9915199e+02
   1.7600000e+00  -2.5086503e+02
   1.7610000e+00  -1.6685925e+02
   1.7620000e+00  -6.1783824e+01
   1.7630000e+00   5.1685134e+01
   1.7640000e+00   1.5789640e+02
   1.7650000e+00   2.4011230e+02
   1.7660000e+00   2.8938966e+02
   1.7670000e+00   2.9765955e+02
   1.7680000e+00   2.6258378e+02
   1.7690000e+00   1.9109846e+02
   1.7700000e+00   9.2069057e+01
   1.7710000e+00  -1.9749708e+01
   1.7720000e+00  -1.2708873e+02
   1.7730000e+00  -2.1735482e+02
   1.7740000e+00  -2.7684345e+02
   1.7750000e+00  -2.9681785e+02
   1.7760000e+00  -2.7688598e+02
   1.7770000e+00  -2.1627227e+02
   1.7780000e+00  -1.2341498e+02
   1.7790000e+00  -1.2919055e+01
   1.7800000e+00   1.0132728e+02
   1.7810000e+00   2.0139971e+02
   1.7820000e+00   2.7297216e+02
   1.7830000e+00   3.0834834e+02
   1.7840000e+00   3.0139491e+02
   1.7850000e+00   2.5417094e+02
   1.7860000e+00   1.7376355e+02
   1.7870000e+00   6.8291687e+01
   1.7880000e+00  -4.5427739e+01
   1.7890000e+00  -1.5086540e+02
   1.7900000e+00  -2.3459204e+02
   1.7910000e+00  -2.8190600e+02
   1.7920000e+00  -2.8734996e+02
   1.7930000e+00  -2.5177288e+02
   1.7940000e+00  -1.7873517e+02
   1.7950000e+00  -8.0005961e+01
   1.7960000e+00   3.1535685e+01
   1.7970000e+00   1.4227401e+02
   1.7980000e+00   2.3465839e+02
   1.7990000e+00   2.9686566e+02
   1.8000000e+00   3.2019361e+02
   1.8010000e+00   2.9838884e+02
   1.8020000e+00   2.3766738e+02
   1.8030000e+00   1.4650133e+02
   1.8040000e+00   3.6284090e+01
   1.8050000e+00  -7.5592064e+01
   1.8060000e+00  -1.7505866e+02
   1.8070000e+00  -2.4832356e+02
   1.8080000e+00  -2.8291842e+02
   1.8090000e+00  -2.7565228e+02
   1.8100000e+00  -2.2703103e+02
   1.8110000e+00  -1.4370189e+02
   1.8120000e+00  -4.0229800e+01
   1.8130000e+00   7.1568504e+01
   1.8140000e+00   1.7684792e+02
   1.8150000e+00   2.5886273e+02
   1.8160000e+00   3.0793462e+02
   1.8170000e+00   3.1524905e+02
   1.8180000e+00   2.7855646e+02
   1.8190000e+00   2.0557677e+02
   1.8200000e+00   1.0563020e+02
   1.8210000e+00  -6.9397256e+00
   1.8220000e+00  -1.1565852e+02
   1.8230000e+00  -2.0799500e+02
   1.8240000e+00  -2.6906946e+02
   1.8250000e+00  -2.8881246e+02
   1.8260000e+00  -2.6680480e+02
   1.8270000e+00  -2.0387988e+02
   1.8280000e+00  -1.1051507e+02
   1.8290000e+00  -1.8711447e+00
   1.8300000e+00   1.0955931e+02
   1.8310000e+00   2.0780250e+02
   1.8320000e+00   2.7929164e+02
   1.8330000e+00   3.1528839e+02
   1.8340000e+00   3.0805662e+02
   1.8350000e+00   2.5921559e+02
   1.8360000e+00   1.7691980e+02
   1.8370000e+00   7.0855148e+01
   1.8380000e+00  -4.1537273e+01
   1.8390000e+00  -1.4459102e+02
   1.8400000e+00  -2.2629924e+02
   1.8410000e+00  -2.7281419e+02
   1.8420000e+00  -2.7848218e+02
   1.8430000e+00  -2.4324966e+02
   1.8440000e+00  -1.7000417e+02
   1.8450000e+00  -7.0590574e+01
   1.8460000e+00   4.1430261e+01
   1.8470000e+00   1.5160053e+02
   1.8480000e+00   2.4201473e+02
   1.8490000e+00   3.0119599e+02
   1.8500000e+00   3.2119428e+02
   1.8510000e+00   2.9653525e+02
   1.8520000e+00   2.3376324e+02
   1.8530000e+00   1.4125126e+02
   1.8540000e+00   3.0184886e+01
   1.8550000e+00  -8.2286608e+01
   1.8560000e+00  -1.8233016e+02
   1.8570000e+00  -2.5642248e+02
   1.8580000e+00  -2.9236319e+02
   1.8590000e+00  -2.8684151e+02
   1.8600000e+00  -2.3984927e+02
   1.8610000e+00  -1.5762174e+02
   1.8620000e+00  -5.4828970e+01
   1.8630000e+00   5.6031477e+01
   1.8640000e+00   1.5962005e+02
   1.8650000e+00   2.3969361e+02
   1.8660000e+00   2.8770594e+02
   1.8670000e+00   2.9563456e+02
   1.8680000e+00   2.6078945e+02
   1.8690000e+00   1.8934726e+02
   1.8700000e+00   8.9441869e+01
   1.8710000e+00  -2.4379675e+01
   1.8720000e+00  -1.3446551e+02
   1.8730000e+00  -2.2733278e+02
   1.8740000e+00  -2.8841399e+02
   1.8750000e+00  -3.0882594e+02
   1.8760000e+00  -2.8876121e+02
   1.8770000e+00  -2.2838936e+02
   1.8780000e+00  -1.3679291e+02
   1.8790000e+00  -2.8302777e+01
   1.8800000e+00   8.4044980e+01
   1.8810000e+00   1.8302255e+02
   1.8820000e+00   2.5431230e+02
   1.8830000e+00   2.8950623e+02
   1.8840000e+00   2.8183037e+02
   1.8850000e+00   2.3338807e+02
   1.8860000e+00   1.5184187e+02
   1.8870000e+00   4.5904067e+01
   1.8880000e+00  -6.7638527e+01
   1.8890000e+00  -1.7287608e+02
   1.8900000e+00  -2.5691812e+02
   1.8910000e+00  -3.0515269e+02
   1.8920000e+00  -3.1172905e+02
   1.8930000e+00  -2.7702814e+02
   1.8940000e+00  -2.0454627e+02
   1.8950000e+00  -1.0628353e+02
   1.8960000e+00   4.6216780e+00
   1.8970000e+00   1.1447283e+02
   1.8980000e+00   2.0591527e+02
   1.8990000e+00   2.6733890e+02
   1.9000000e+00   2.9017338e+02
   1.9010000e+00   2.6832223e+02
   1.9020000e+00   2.0801662e+02
   1.9030000e+00   1.1771583e+02
   1.9040000e+00   8.6902448e+00
   1.9050000e+00  -1.0205441e+02
   1.9060000e+00  -2.0084497e+02
   1.9070000e+00  -2.7416388e+02
   1.9080000e+00  -3.0956048e+02
   1.9090000e+00  -3.0342479e+02
   1.9100000e+00  -2.5572052e+02
   1.9110000e+00  -1.7272402e+02
   1.9120000e+00  -6.8966920e+01
   1.9130000e+00   4.3297550e+01
   1.9140000e+00   1.4885389e+02
   1.9150000e+00   2.3103441e+02
   1.9160000e+00   2.8044135e+02
   1.9170000e+00   2.8857710e+02
   1.9180000e+00   2.5310875e+02
   1.9190000e+00   1.8122349e+02
   1.9200000e+00   8.1948535e+01
   1.9210000e+00  -3.0280480e+01
   1.9220000e+00  -1.3873612e+02
   1.9230000e+00  -2.3076163e+02
   1.9240000e+00  -2.9196370e+02
   1.9250000e+00  -3.1282864e+02
   1.9260000e+00  -2.9276373e+02
   1.9270000e+00  -2.3189204e+02
   1.9280000e+00  -1.3964969e+02
   1.9290000e+00  -3.0693322e+01
   1.9300000e+00   8.1891587e+01
   1.9310000e+00   1.8123891e+02
   1.9320000e+00   2.5324242e+02
   1.9330000e+00   2.8926483e+02
   1.9340000e+00   2.8226522e+02
   1.9350000e+00   2.3419459e+02
   1.9360000e+00   1.5282368e+02
   1.9370000e+00   4.7185715e+01
   1.9380000e+00  -6.5935132e+01
   1.9390000e+00  -1.7084687e+02
   1.9400000e+00  -2.5487127e+02
   1.9410000e+00  -3.0357726e+02
   1.9420000e+00  -3.1108049e+02
   1.9430000e+00  -2.7767064e+02
   1.9440000e+00  -2.0676684e+02
   1.9450000e+00  -1.1035684e+02
   1.9460000e+00  -1.5785745e+00
   1.9470000e+00   1.0598583e+02
   1.9480000e+00   1.9498262e+02
   1.9490000e+00   2.5386967e+02
   1.9500000e+00   2.7416260e+02
   1.9510000e+00   2.4948226e+02
   1.9520000e+00   1.8620865e+02
   1.9530000e+00   9.3056206e+01
   1.9540000e+00  -1.8606485e+01
   1.9550000e+00  -1.3129519e+02
   1.9560000e+00  -2.3157132e+02
   1.9570000e+00  -3.0675583e+02
   1.9580000e+00  -3.4463801e+02
   1.9590000e+00  -3.4168685e+02
   1.9600000e+00  -2.9706357e+02
   1.9610000e+00  -2.1569386e+02
   1.9620000e+00  -1.1206421e+02
   1.9630000e+00   1.3674797e+00
   1.9640000e+00   1.0908414e+02
   1.9650000e+00   1.9419578e+02
   1.9660000e+00   2.4851079e+02
   1.9670000e+00   2.6444979e+02
   1.9680000e+00   2.3927149e+02
   1.9690000e+00   1.7902076e+02
   1.9700000e+00   9.1200245e+01
   1.9710000e+00  -1.0372547e+01
   1.9720000e+00  -1.0819860e+02
   1.9730000e+00  -1.8845792e+02
   1.9740000e+00  -2.3610074e+02
   1.9750000e+00  -2.4178077e+02
   1.9760000e+00  -2.0544841e+02
   1.9770000e+00  -1.2756862e+02
   1.9780000e+00  -1.7542155e+01
   1.9790000e+00   1.0998154e+02
   1.9800000e+00   2.4153067e+02
   1.9810000e+00   3.5961119e+02
   1.9820000e+00   4.4950026e+02
   1.9830000e+00   5.0218208e+02
   1.9840000e+00   5.1028227e+02
   1.9850000e+00   4.7518440e+02
   1.9860000e+00   4.0404914e+02
   1.9870000e+00   3.0537540e+02
   1.9880000e+00   1.9557405e+02
   1.9890000e+00   9.0056391e+01
   1.9900000e+00   9.0656010e-01
   1.9910000e+00  -5.8262500e+01
   1.9920000e+00  -8.1915009e+01
   1.9930000e+00  -6.9902276e+01
   1.9940000e+00  -2.4458570e+01
   1.9950000e+00   4.4110151e+01
   1.9960000e+00   1.2414031e+02
   1.9970000e+00   2.0321859e+02
   1.9980000e+00   2.6537735e+02
   1.9990000e+00   3.0046809e+02
   2.0000000e+00   3.0118080e+02
   2.0010000e+00   2.6203810e+02
   2.0020000e+00   1.8909125e+02
   2.0030000e+00   9.0043020e+01
   2.0040000e+00  -2.4466412e+01
   2.0050000e+00  -1.3777141e+02
   2.0060000e+00  -2.3665997e+02
   2.0070000e+00  -3.0813765e+02
   2.0080000e+00  -3.4062493e+02
   2.0090000e+00  -3.3143527e+02
   2.0100000e+00  -2.8054878e+02
   2.0110000e+00  -1.9413400e+02
   2.0120000e+00  -8.6847654e+01
   2.0130000e+00   2.8976000e+01
   2.0140000e+00   1.3700450e+02
   2.0150000e+00   2.1964770e+02
   2.0160000e+00   2.6784072e+02
   2.0170000e+00   2.7373714e+02
   2.0180000e+00   2.3654845e+02
   2.0190000e+00   1.6468113e+02
   2.0200000e+00   6.6772580e+01
   2.0210000e+00  -4.3562158e+01
   2.0220000e+00  -1.5082081e+02
   2.0230000e+00  -2.4314022e+02
   2.0240000e+00  -3.0533088e+02
   2.0250000e+00  -3.2683808e+02
   2.0260000e+00  -3.0653613e+02
   2.0270000e+00  -2.4463564e+02
   2.0280000e+00  -1.5154049e+02
   2.0290000e+00  -4.2739628e+01
   2.0300000e+00   6.8701194e+01
   2.0310000e+00   1.6660103e+02
   2.0320000e+00   2.3756558e+02
   2.0330000e+00   2.7325050e+02
   2.0340000e+00   2.6629190e+02
   2.0350000e+00   2.1801091e+02
   2.0360000e+00   1.3591817e+02
   2.0370000e+00   2.9240051e+01
   2.0380000e+00  -8.4749723e+01
   2.0390000e+00  -1.8983473e+02
   2.0400000e+00  -2.7319192e+02
   2.0410000e+00  -3.2062244e+02
   2.0420000e+00  -3.2653275e+02
   2.0430000e+00  -2.9137879e+02
   2.0440000e+00  -2.1863268e+02
   2.0450000e+00  -1.2020341e+02
   2.0460000e+00  -9.2604922e+00
   2.0470000e+00   1.0048860e+02
   2.0480000e+00   1.9192562e+02
   2.0490000e+00   2.5367701e+02
   2.0500000e+00   2.7716462e+02
   2.0510000e+00   2.5581773e+02
   2.0520000e+00   1.9509890e+02
   2.0530000e+00   1.0332326e+02
   2.0540000e+00  -7.3487307e+00
   2.0550000e+00  -1.1858744e+02
   2.0560000e+00  -2.1605055e+02
   2.0570000e+00  -2.8702587e+02
   2.0580000e+00  -3.2075477e+02
   2.0590000e+00  -3.1460634e+02
   2.0600000e+00  -2.6799928e+02
   2.0610000e+00  -1.8572748e+02
   2.0620000e+00  -8.1415626e+01
   2.0630000e+00   3.1983231e+01
   2.0640000e+00   1.3780300e+02
   2.0650000e+00   2.1875405e+02
   2.0660000e+00   2.6627221e+02
   2.0670000e+00   2.7341514e+02
   2.0680000e+00   2.3850968e+02
   2.0690000e+00   1.6785416e+02
   2.0700000e+00   6.9023055e+01
   2.0710000e+00  -4.4203485e+01
   2.0720000e+00  -1.5439495e+02
   2.0730000e+00  -2.4760949e+02
   2.0740000e+00  -3.0881915e+02
   2.0750000e+00  -3.2883943e+02
   2.0760000e+00  -3.0781209e+02
   2.0770000e+00  -2.4626853e+02
   2.0780000e+00  -1.5356715e+02
   2.0790000e+00  -4.4309601e+01
   2.0800000e+00   6.8194415e+01
   2.0810000e+00   1.6683045e+02
   2.0820000e+00   2.3761495e+02
   2.0830000e+00   2.7250532e+02
   2.0840000e+00   2.6497255e+02
   2.0850000e+00   2.1694062e+02
   2.0860000e+00   1.3579353e+02
   2.0870000e+00   3.0205754e+01
   2.0880000e+00  -8.2997689e+01
   2.0890000e+00  -1.8783591e+02
   2.0900000e+00  -2.7154324e+02
   2.0910000e+00  -3.1985737e+02
   2.0920000e+00  -3.2691326e+02
   2.0930000e+00  -2.9262022e+02
   2.0940000e+00  -2.1991882e+02
   2.0950000e+00  -1.2064686e+02
   2.0960000e+00  -8.5867242e+00
   2.0970000e+00   1.0157399e+02
   2.0980000e+00   1.9207177e+02
   2.0990000e+00   2.5177068e+02
   2.1000000e+00   2.7316192e+02
   2.1010000e+00   2.5090637e+02
   2.1020000e+00   1.9090375e+02
   2.1030000e+00   1.0064907e+02
   2.1040000e+00  -9.3393581e+00
   2.1050000e+00  -1.2196839e+02
   2.1060000e+00  -2.2256804e+02
   2.1070000e+00  -2.9655109e+02
   2.1080000e+00  -3.3111513e+02
   2.1090000e+00  -3.2314213e+02
   2.1100000e+00  -2.7363977e+02
   2.1110000e+00  -1.8976061e+02
   2.1120000e+00  -8.6210961e+01
   2.1130000e+00   2.5137343e+01
   2.1140000e+00   1.2975983e+02
   2.1150000e+00   2.1153540e+02
   2.1160000e+00   2.6111285e+02
   2.1170000e+00   2.6975555e+02
   2.1180000e+00   2.3480240e+02
   2.1190000e+00   1.6319029e+02
   2.1200000e+00   6.3886532e+01
   2.1210000e+00  -4.8665652e+01
   2.1220000e+00  -1.5763227e+02
   2.1230000e+00  -2.5010398e+02
   2.1240000e+00  -3.1140655e+02
   2.1250000e+00  -3.3184145e+02
   2.1260000e+00  -3.1094876e+02
   2.1270000e+00  -2.4927323e+02
   2.1280000e+00  -1.5660687e+02
   2.1290000e+00  -4.7651419e+01
   2.1300000e+00   6.4829914e+01
   2.1310000e+00   1.6434796e+02
   2.1320000e+00   2.3680068e+02
   2.1330000e+00   2.7321407e+02
   2.1340000e+00   2.6611135e+02
   2.1350000e+00   2.1729056e+02
   2.1360000e+00   1.3491219e+02
   2.1370000e+00   2.8593588e+01
   2.1380000e+00  -8.4514398e+01
   2.1390000e+00  -1.8876411e+02
   2.1400000e+00  -2.7191313e+02
   2.1410000e+00  -3.1993899e+02
   2.1420000e+00  -3.2688391e+02
   2.1430000e+00  -2.9253803e+02
   2.1440000e+00  -2.1986629e+02
   2.1450000e+00  -1.2073566e+02
   2.1460000e+00  -8.8012155e+00
   2.1470000e+00   1.0149413e+02
   2.1480000e+00   1.9246511e+02
   2.1490000e+00   2.5268044e+02
   2.1500000e+00   2.7416260e+02
   2.1510000e+00   2.5135061e+02
   2.1520000e+00   1.9043517e+02
   2.1530000e+00   9.9575171e+01
   2.1540000e+00  -1.0173559e+01
   2.1550000e+00  -1.2172848e+02
   2.1560000e+00  -2.2098881e+02
   2.1570000e+00  -2.9413543e+02
   2.1580000e+00  -3.2884619e+02
   2.1590000e+00  -3.2190350e+02
   2.1600000e+00  -2.7372353e+02
   2.1610000e+00  -1.9071713e+02
   2.1620000e+00  -8.7124647e+01
   2.1630000e+00   2.5106847e+01
   2.1640000e+00   1.3087825e+02
   2.1650000e+00   2.1334551e+02
   2.1660000e+00   2.6271258e+02
   2.1670000e+00   2.7038004e+02
   2.1680000e+00   2.3431947e+02
   2.1690000e+00   1.6215717e+02
   2.1700000e+00   6.3153285e+01
   2.1710000e+00  -4.8541439e+01
   2.1720000e+00  -1.5673334e+02
   2.1730000e+00  -2.4901711e+02
   2.1740000e+00  -3.1075238e+02
   2.1750000e+00  -3.3184145e+02
   2.1760000e+00  -3.1133554e+02
   2.1770000e+00  -2.4956950e+02
   2.1780000e+00  -1.5651312e+02
   2.1790000e+00  -4.7257187e+01
   2.1800000e+00   6.5108287e+01
   2.1810000e+00   1.6403746e+02
   2.1820000e+00   2.3565615e+02
   2.1830000e+00   2.7136088e+02
   2.1840000e+00   2.6399755e+02
   2.1850000e+00   2.1547913e+02
   2.1860000e+00   1.3381954e+02
   2.1870000e+00   2.8294768e+01
   2.1880000e+00  -8.4353762e+01
   2.1890000e+00  -1.8882932e+02
   2.1900000e+00  -2.7302638e+02
   2.1910000e+00  -3.2273627e+02
   2.1920000e+00  -3.3142644e+02
   2.1930000e+00  -2.9812164e+02
   2.1940000e+00  -2.2529977e+02
   2.1950000e+00  -1.2499629e+02
   2.1960000e+00  -1.1656092e+01
   2.1970000e+00   9.9435101e+01
   2.1980000e+00   1.9041347e+02
   2.1990000e+00   2.5042085e+02
   2.2000000e+00   2.7216125e+02
   2.2010000e+00   2.5009879e+02
   2.2020000e+00   1.8968243e+02
   2.2030000e+00   9.8395758e+01
   2.2040000e+00  -1.2461127e+01
   2.2050000e+00  -1.2478088e+02
   2.2060000e+00  -2.2368571e+02
   2.2070000e+00  -2.9572352e+02
   2.2080000e+00  -3.2979126e+02
   2.2090000e+00  -3.2340458e+02
   2.2100000e+00  -2.7637687e+02
   2.2110000e+00  -1.9376468e+02
   2.2120000e+00  -8.9150636e+01
   2.2130000e+00   2.4621577e+01
   2.2140000e+00   1.3083793e+02
   2.2150000e+00   2.1194417e+02
   2.2160000e+00   2.5900195e+02
   2.2170000e+00   2.6493509e+02
   2.2180000e+00   2.2837645e+02
   2.2190000e+00   1.5625461e+02
   2.2200000e+00   5.6820961e+01
   2.2210000e+00  -5.5863040e+01
   2.2220000e+00  -1.6472565e+02
   2.2230000e+00  -2.5662201e+02
   2.2240000e+00  -3.1731121e+02
   2.2250000e+00  -3.3784549e+02
   2.2260000e+00  -3.1788755e+02
   2.2270000e+00  -2.5717604e+02
   2.2280000e+00  -1.6450042e+02
   2.2290000e+00  -5.4504056e+01
   2.2300000e+00   5.8894332e+01
   2.2310000e+00   1.5788020e+02
   2.2320000e+00   2.2814515e+02
   2.2330000e+00   2.6190355e+02
   2.2340000e+00   2.5326595e+02
   2.2350000e+00   2.0470627e+02
   2.2360000e+00   1.2373411e+02
   2.2370000e+00   1.8682810e+01
   2.2380000e+00  -9.4103498e+01
   2.2390000e+00  -1.9884629e+02
   2.2400000e+00  -2.8263736e+02
   2.2410000e+00  -3.3094783e+02
   2.2420000e+00  -3.3788218e+02
   2.2430000e+00  -3.0367010e+02
   2.2440000e+00  -2.3154119e+02
   2.2450000e+00  -1.3315482e+02
   2.2460000e+00  -2.1588638e+01
   2.2470000e+00   8.9235229e+01
   2.2480000e+00   1.8159823e+02
   2.2490000e+00   2.4347294e+02
   2.2500000e+00   2.6615720e+02
   2.2510000e+00   2.4370499e+02
   2.2520000e+00   1.8257526e+02
   2.2530000e+00   9.1572479e+01
   2.2540000e+00  -1.7788919e+01
   2.2550000e+00  -1.2839068e+02
   2.2560000e+00  -2.2647161e+02
   2.2570000e+00  -2.9854505e+02
   2.2580000e+00  -3.3223142e+02
   2.2590000e+00  -3.2402834e+02
   2.2600000e+00  -2.7412630e+02
   2.2610000e+00  -1.8896855e+02
   2.2620000e+00  -8.3166544e+01
   2.2630000e+00   3.0927126e+01
   2.2640000e+00   1.3799422e+02
   2.2650000e+00   2.2112229e+02
   2.2660000e+00   2.7069214e+02
   2.2670000e+00   2.7838723e+02
   2.2680000e+00   2.4243986e+02
   2.2690000e+00   1.7077284e+02
   2.2700000e+00   7.2775738e+01
   2.2710000e+00  -3.7503412e+01
   2.2720000e+00  -1.4408136e+02
   2.2730000e+00  -2.3487707e+02
   2.2740000e+00  -2.9548480e+02
   2.2750000e+00  -3.1583066e+02
   2.2760000e+00  -2.9492485e+02
   2.2770000e+00  -2.3288164e+02
   2.2780000e+00  -1.3938111e+02
   2.2790000e+00  -2.9331324e+01
   2.2800000e+00   8.4283159e+01
   2.2810000e+00   1.8471931e+02
   2.2820000e+00   2.5765760e+02
   2.2830000e+00   2.9420585e+02
   2.2840000e+00   2.8720354e+02
   2.2850000e+00   2.3890728e+02
   2.2860000e+00   1.5775517e+02
   2.2870000e+00   5.3010332e+01
   2.2880000e+00  -5.8866441e+01
   2.2890000e+00  -1.6275790e+02
   2.2900000e+00  -2.4637472e+02
   2.2910000e+00  -2.9492590e+02
   2.2920000e+00  -3.0174454e+02
   2.2930000e+00  -2.6661098e+02
   2.2940000e+00  -1.9306698e+02
   2.2950000e+00  -9.3707096e+01
   2.2960000e+00   1.7727790e+01
   2.2970000e+00   1.2752653e+02
   2.2980000e+00   2.1881805e+02
   2.2990000e+00   2.8051340e+02
   2.3000000e+00   3.0418282e+02
   2.3010000e+00   2.8325975e+02
   2.3020000e+00   2.2332762e+02
   2.3030000e+00   1.3255061e+02
   2.3040000e+00   2.2506234e+01
   2.3050000e+00  -8.8999753e+01
   2.3060000e+00  -1.8764982e+02
   2.3070000e+00  -2.5993149e+02
   2.3080000e+00  -2.9395580e+02
   2.3090000e+00  -2.8681255e+02
   2.3100000e+00  -2.3873620e+02
   2.3110000e+00  -1.5571527e+02
   2.3120000e+00  -5.1848989e+01
   2.3130000e+00   6.0831279e+01
   2.3140000e+00   1.6691497e+02
   2.3150000e+00   2.4934161e+02
   2.3160000e+00   2.9862331e+02
   2.3170000e+00   3.0651119e+02
   2.3180000e+00   2.7107998e+02
   2.3190000e+00   1.9980494e+02
   2.3200000e+00   1.0153041e+02
   2.3210000e+00  -9.7692349e+00
   2.3220000e+00  -1.1774811e+02
   2.3230000e+00  -2.0991607e+02
   2.3240000e+00  -2.7159790e+02
   2.3250000e+00  -2.9281516e+02
   2.3260000e+00  -2.7275131e+02
   2.3270000e+00  -2.1142509e+02
   2.3280000e+00  -1.1848941e+02
   2.3290000e+00  -8.9710187e+00
   2.3300000e+00   1.0389815e+02
   2.3310000e+00   2.0313299e+02
   2.3320000e+00   2.7457366e+02
   2.3330000e+00   3.0966492e+02
   2.3340000e+00   3.0132827e+02
   2.3350000e+00   2.5167680e+02
   2.3360000e+00   1.6894731e+02
   2.3370000e+00   6.2612883e+01
   2.3380000e+00  -5.0112310e+01
   2.3390000e+00  -1.5366290e+02
   2.3400000e+00  -2.3614941e+02
   2.3410000e+00  -2.8384242e+02
   2.3420000e+00  -2.9100701e+02
   2.3430000e+00  -2.5722374e+02
   2.3440000e+00  -1.8487340e+02
   2.3450000e+00  -8.5575683e+01
   2.3460000e+00   2.6835185e+01
   2.3470000e+00   1.3748839e+02
   2.3480000e+00   2.2839758e+02
   2.3490000e+00   2.8848116e+02
   2.3500000e+00   3.1018687e+02
   2.3510000e+00   2.8777326e+02
   2.3520000e+00   2.2694024e+02
   2.3530000e+00   1.3535673e+02
   2.3540000e+00   2.4375682e+01
   2.3550000e+00  -8.7848440e+01
   2.3560000e+00  -1.8663891e+02
   2.3570000e+00  -2.5867065e+02
   2.3580000e+00  -2.9276337e+02
   2.3590000e+00  -2.8643649e+02
   2.3600000e+00  -2.3941539e+02
   2.3610000e+00  -1.5674624e+02
   2.3620000e+00  -5.2182121e+01
   2.3630000e+00   6.1545960e+01
   2.3640000e+00   1.6788034e+02
   2.3650000e+00   2.4937180e+02
   2.3660000e+00   2.9727329e+02
   2.3670000e+00   3.0432526e+02
   2.3680000e+00   2.6875986e+02
   2.3690000e+00   1.9721357e+02
   2.3700000e+00   9.7720972e+01
   2.3710000e+00  -1.5441510e+01
   2.3720000e+00  -1.2467870e+02
   2.3730000e+00  -2.1648221e+02
   2.3740000e+00  -2.7640967e+02
   2.3750000e+00  -2.9581718e+02
   2.3760000e+00  -2.7511307e+02
   2.3770000e+00  -2.1446604e+02
   2.3780000e+00  -1.2276702e+02
   2.3790000e+00  -1.4233470e+01
   2.3800000e+00   9.8097272e+01
   2.3810000e+00   1.9698133e+02
   2.3820000e+00   2.6817301e+02
   2.3830000e+00   3.0343653e+02
   2.3840000e+00   2.9605676e+02
   2.3850000e+00   2.4801325e+02
   2.3860000e+00   1.6681869e+02
   2.3870000e+00   6.1134937e+01
   2.3880000e+00  -5.2090616e+01
   2.3890000e+00  -1.5679843e+02
   2.3900000e+00  -2.4022587e+02
   2.3910000e+00  -2.8808864e+02
   2.3920000e+00  -2.9485802e+02
   2.3930000e+00  -2.6090505e+02
   2.3940000e+00  -1.8927557e+02
   2.3950000e+00  -9.1430894e+01
   2.3960000e+00   1.9751949e+01
   2.3970000e+00   1.3032514e+02
   2.3980000e+00   2.2226906e+02
   2.3990000e+00   2.8343069e+02
   2.4000000e+00   3.0518350e+02
   2.4010000e+00   2.8187003e+02
   2.4020000e+00   2.2042517e+02
   2.4030000e+00   1.2968086e+02
   2.4040000e+00   2.0727192e+01
   2.4050000e+00  -8.9932407e+01
   2.4060000e+00  -1.8903723e+02
   2.4070000e+00  -2.6294821e+02
   2.4080000e+00  -2.9863089e+02
   2.4090000e+00  -2.9194666e+02
   2.4100000e+00  -2.4278050e+02
   2.4110000e+00  -1.5791385e+02
   2.4120000e+00  -5.2635217e+01
   2.4130000e+00   6.0354163e+01
   2.4140000e+00   1.6582005e+02
   2.4150000e+00   2.4737428e+02
   2.4160000e+00   2.9598369e+02
   2.4170000e+00   3.0331673e+02
   2.4180000e+00   2.6708237e+02
   2.4190000e+00   1.9450895e+02
   2.4200000e+00   9.4614372e+01
   2.4210000e+00  -1.8097470e+01
   2.4220000e+00  -1.2674241e+02
   2.4230000e+00  -2.1855326e+02
   2.4240000e+00  -2.7902909e+02
   2.4250000e+00  -2.9881920e+02
   2.4260000e+00  -2.7793381e+02
   2.4270000e+00  -2.1706878e+02
   2.4280000e+00  -1.2601620e+02
   2.4290000e+00  -1.9252670e+01
   2.4300000e+00   9.0962168e+01
   2.4310000e+00   1.8857929e+02
   2.4320000e+00   2.5988354e+02
   2.4330000e+00   2.9610409e+02
   2.4340000e+00   2.8952683e+02
   2.4350000e+00   2.4154507e+02
   2.4360000e+00   1.5987340e+02
   2.4370000e+00   5.3797925e+01
   2.4380000e+00  -5.9383532e+01
   2.4390000e+00  -1.6376489e+02
   2.4400000e+00  -2.4697521e+02
   2.4410000e+00  -2.9493698e+02
   2.4420000e+00  -3.0192104e+02
   2.4430000e+00  -2.6789341e+02
   2.4440000e+00  -1.9567666e+02
   2.4450000e+00  -9.6887153e+01
   2.4460000e+00   1.5181941e+01
   2.4470000e+00   1.2626278e+02
   2.4480000e+00   2.1840656e+02
   2.4490000e+00   2.7982635e+02
   2.4500000e+00   3.0218147e+02
   2.4510000e+00   2.7966929e+02
   2.4520000e+00   2.1866160e+02
   2.4530000e+00   1.2750929e+02
   2.4540000e+00   1.7389422e+01
   2.4550000e+00  -9.4509712e+01
   2.4560000e+00  -1.9417669e+02
   2.4570000e+00  -2.6778823e+02
   2.4580000e+00  -3.0280719e+02
   2.4590000e+00  -2.9579405e+02
   2.4600000e+00  -2.4695851e+02
   2.4610000e+00  -1.6283135e+02
   2.4620000e+00  -5.8229248e+01
   2.4630000e+00   5.4404944e+01
   2.4640000e+00   1.5982274e+02
   2.4650000e+00   2.4154362e+02
   2.4660000e+00   2.9055186e+02
   2.4670000e+00   2.9857114e+02
   2.4680000e+00   2.6317668e+02
   2.4690000e+00   1.9130524e+02
   2.4700000e+00   9.1754880e+01
   2.4710000e+00  -2.0948370e+01
   2.4720000e+00  -1.2971503e+02
   2.4730000e+00  -2.2167272e+02
   2.4740000e+00  -2.8245324e+02
   2.4750000e+00  -3.0282190e+02
   2.4760000e+00  -2.8256302e+02
   2.4770000e+00  -2.2177438e+02
   2.4780000e+00  -1.2967960e+02
   2.4790000e+00  -2.0783317e+01
   2.4800000e+00   9.1881108e+01
   2.4810000e+00   1.9115343e+02
   2.4820000e+00   2.6259664e+02
   2.4830000e+00   2.9763430e+02
   2.4840000e+00   2.8953805e+02
   2.4850000e+00   2.4081808e+02
   2.4860000e+00   1.5973327e+02
   2.4870000e+00   5.5234052e+01
   2.4880000e+00  -5.6285977e+01
   2.4890000e+00  -1.5969953e+02
   2.4900000e+00  -2.4277856e+02
   2.4910000e+00  -2.9094845e+02
   2.4920000e+00  -2.9781421e+02
   2.4930000e+00  -2.6309647e+02
   2.4940000e+00  -1.8997056e+02
   2.4950000e+00  -9.0722693e+01
   2.4960000e+00   2.0871141e+01
   2.4970000e+00   1.3062387e+02
   2.4980000e+00   2.2115715e+02
   2.4990000e+00   2.8134128e+02
   2.5000000e+00   3.0318215e+02
   2.5010000e+00   2.8077310e+02
   2.5020000e+00   2.2019980e+02
   2.5030000e+00   1.2966397e+02
   2.5040000e+00   2.0412082e+01
   2.5050000e+00  -9.0270770e+01
   2.5060000e+00  -1.8859416e+02
   2.5070000e+00  -2.6133012e+02
   2.5080000e+00  -2.9649808e+02
   2.5090000e+00  -2.9071531e+02
   2.5100000e+00  -2.4357646e+02
   2.5110000e+00  -1.6073869e+02
   2.5120000e+00  -5.6576635e+01
   2.5130000e+00   5.6227067e+01
   2.5140000e+00   1.6182989e+02
   2.5150000e+00   2.4343703e+02
   2.5160000e+00   2.9233875e+02
   2.5170000e+00   3.0079980e+02
   2.5180000e+00   2.6652447e+02
   2.5190000e+00   1.9592248e+02
   2.5200000e+00   9.6941190e+01
   2.5210000e+00  -1.6326417e+01
   2.5220000e+00  -1.2640804e+02
   2.5230000e+00  -2.1953989e+02
   2.5240000e+00  -2.8050984e+02
   2.5250000e+00  -2.9981988e+02
   2.5260000e+00  -2.7768776e+02
   2.5270000e+00  -2.1492640e+02
   2.5280000e+00  -1.2144454e+02
   2.5290000e+00  -1.2108592e+01
   2.5300000e+00   1.0021256e+02
   2.5310000e+00   1.9892486e+02
   2.5320000e+00   2.7028925e+02
   2.5330000e+00   3.0616996e+02
   2.5340000e+00   2.9960640e+02
   2.5350000e+00   2.5232979e+02
   2.5360000e+00   1.7176324e+02
   2.5370000e+00   6.6466915e+01
   2.5380000e+00  -4.6738322e+01
   2.5390000e+00  -1.5186253e+02
   2.5400000e+00  -2.3599540e+02
   2.5410000e+00  -2.8429481e+02
   2.5420000e+00  -2.9055099e+02
   2.5430000e+00  -2.5482383e+02
   2.5440000e+00  -1.8050266e+02
   2.5450000e+00  -8.0106257e+01
   2.5460000e+00   3.2338260e+01
   2.5470000e+00   1.4256319e+02
   2.5480000e+00   2.3336944e+02
   2.5490000e+00   2.9412273e+02
   2.5500000e+00   3.1719159e+02
   2.5510000e+00   2.9638240e+02
   2.5520000e+00   2.3701957e+02
   2.5530000e+00   1.4658126e+02
   2.5540000e+00   3.6282269e+01
   2.5550000e+00  -7.5759460e+01
   2.5560000e+00  -1.7476294e+02
   2.5570000e+00  -2.4706884e+02
   2.5580000e+00  -2.8098197e+02
   2.5590000e+00  -2.7373213e+02
   2.5600000e+00  -2.2519735e+02
   2.5610000e+00  -1.4089998e+02
   2.5620000e+00  -3.5110539e+01
   2.5630000e+00   7.9280558e+01
   2.5640000e+00   1.8591521e+02
   2.5650000e+00   2.6762082e+02
   2.5660000e+00   3.1589337e+02
   2.5670000e+00   3.2357319e+02
   2.5680000e+00   2.8892553e+02
   2.5690000e+00   2.1861567e+02
   2.5700000e+00   1.2046577e+02
   2.5710000e+00   8.3144763e+00
   2.5720000e+00  -1.0061944e+02
   2.5730000e+00  -1.9291396e+02
   2.5740000e+00  -2.5371993e+02
   2.5750000e+00  -2.7380235e+02
   2.5760000e+00  -2.5330921e+02
   2.5770000e+00  -1.9253429e+02
   2.5780000e+00  -1.0076416e+02
   2.5790000e+00   7.5131342e+00
   2.5800000e+00   1.1937327e+02
   2.5810000e+00   2.1779190e+02
   2.5820000e+00   2.8861897e+02
   2.5830000e+00   3.2356656e+02
   2.5840000e+00   3.1577803e+02
   2.5850000e+00   2.6729650e+02
   2.5860000e+00   1.8584298e+02
   2.5870000e+00   8.0119023e+01
   2.5880000e+00  -3.3030483e+01
   2.5890000e+00  -1.3781464e+02
   2.5900000e+00  -2.2166748e+02
   2.5910000e+00  -2.7000548e+02
   2.5920000e+00  -2.7676424e+02
   2.5930000e+00  -2.4185641e+02
   2.5940000e+00  -1.6828576e+02
   2.5950000e+00  -6.8207518e+01
   2.5960000e+00   4.4538069e+01
   2.5970000e+00   1.5543309e+02
   2.5980000e+00   2.4664468e+02
   2.5990000e+00   3.0688763e+02
   2.6000000e+00   3.2819900e+02
   2.6010000e+00   3.0471978e+02
   2.6020000e+00   2.4264259e+02
   2.6030000e+00   1.5023564e+02
   2.6040000e+00   3.9063769e+01
   2.6050000e+00  -7.2970185e+01
   2.6060000e+00  -1.7153502e+02
   2.6070000e+00  -2.4318197e+02
   2.6080000e+00  -2.7626977e+02
   2.6090000e+00  -2.6817814e+02
   2.6100000e+00  -2.1910965e+02
   2.6110000e+00  -1.3486021e+02
   2.6120000e+00  -2.9395053e+01
   2.6130000e+00   8.5198351e+01
   2.6140000e+00   1.9311566e+02
   2.6150000e+00   2.7686876e+02
   2.6160000e+00   3.2672610e+02
   2.6170000e+00   3.3434604e+02
   2.6180000e+00   2.9787657e+02
   2.6190000e+00   2.2484267e+02
   2.6200000e+00   1.2405766e+02
   2.6210000e+00   9.5893570e+00
   2.6220000e+00  -1.0194379e+02
   2.6230000e+00  -1.9753751e+02
   2.6240000e+00  -2.6189990e+02
   2.6250000e+00  -2.8480976e+02
   2.6260000e+00  -2.6574863e+02
   2.6270000e+00  -2.0535474e+02
   2.6280000e+00  -1.1386701e+02
   2.6290000e+00  -6.3087424e+00
   2.6300000e+00   1.0467013e+02
   2.6310000e+00   2.0272320e+02
   2.6320000e+00   2.7395126e+02
   2.6330000e+00   3.0947839e+02
   2.6340000e+00   3.0163943e+02
   2.6350000e+00   2.5214333e+02
   2.6360000e+00   1.6902896e+02
   2.6370000e+00   6.1638384e+01
   2.6380000e+00  -5.2910844e+01
   2.6390000e+00  -1.5896585e+02
   2.6400000e+00  -2.4403935e+02
   2.6410000e+00  -2.9347147e+02
   2.6420000e+00  -3.0097041e+02
   2.6430000e+00  -2.6638059e+02
   2.6440000e+00  -1.9307646e+02
   2.6450000e+00  -9.3633727e+01
   2.6460000e+00   1.8025754e+01
   2.6470000e+00   1.2766619e+02
   2.6480000e+00   2.1797736e+02
   2.6490000e+00   2.7808551e+02
   2.6500000e+00   3.0018012e+02
   2.6510000e+00   2.7840854e+02
   2.6520000e+00   2.1869052e+02
   2.6530000e+00   1.2874220e+02
   2.6540000e+00   1.9336169e+01
   2.6550000e+00  -9.2406636e+01
   2.6560000e+00  -1.9232009e+02
   2.6570000e+00  -2.6632843e+02
   2.6580000e+00  -3.0171080e+02
   2.6590000e+00  -2.9493557e+02
   2.6600000e+00  -2.4613744e+02
   2.6610000e+00  -1.6185571e+02
   2.6620000e+00  -5.7024428e+01
   2.6630000e+00   5.5691969e+01
   2.6640000e+00   1.6075601e+02
   2.6650000e+00   2.4157483e+02
   2.6660000e+00   2.8934067e+02
   2.6670000e+00   2.9625096e+02
   2.6680000e+00   2.6039768e+02
   2.6690000e+00   1.8891317e+02
   2.6700000e+00   9.0344071e+01
   2.6710000e+00  -2.1356039e+01
   2.6720000e+00  -1.2969411e+02
   2.6730000e+00  -2.2208759e+02
   2.6740000e+00  -2.8402862e+02
   2.6750000e+00  -3.0582392e+02
   2.6760000e+00  -2.8672642e+02
   2.6770000e+00  -2.2657247e+02
   2.6780000e+00  -1.3471820e+02
   2.6790000e+00  -2.6032489e+01
   2.6800000e+00   8.6183630e+01
   2.6810000e+00   1.8495293e+02
   2.6820000e+00   2.5637079e+02
   2.6830000e+00   2.9220751e+02
   2.6840000e+00   2.8548014e+02
   2.6850000e+00   2.3786093e+02
   2.6860000e+00   1.5680514e+02
   2.6870000e+00   5.1264397e+01
   2.6880000e+00  -6.1590219e+01
   2.6890000e+00  -1.6573718e+02
   2.6900000e+00  -2.4870934e+02
   2.6910000e+00  -2.9667030e+02
   2.6920000e+00  -3.0412846e+02
   2.6930000e+00  -2.7093394e+02
   2.6940000e+00  -1.9948865e+02
   2.6950000e+00  -1.0090953e+02
   2.6960000e+00   1.1568449e+01
   2.6970000e+00   1.2318478e+02
   2.6980000e+00   2.1550808e+02
   2.6990000e+00   2.7655058e+02
   2.7000000e+00   2.9817878e+02
   2.7010000e+00   2.7506498e+02
   2.7020000e+00   2.1374419e+02
   2.7030000e+00   1.2250639e+02
   2.7040000e+00   1.2424604e+01
   2.7050000e+00  -9.9463202e+01
   2.7060000e+00  -1.9927098e+02
   2.7070000e+00  -2.7336762e+02
   2.7080000e+00  -3.0937028e+02
   2.7090000e+00  -3.0386046e+02
   2.7100000e+00  -2.5685288e+02
   2.7110000e+00  -1.7462567e+02
   2.7120000e+00  -7.2130749e+01
   2.7130000e+00   3.7990420e+01
   2.7140000e+00   1.4045413e+02
   2.7150000e+00   2.1898260e+02
   2.7160000e+00   2.6547167e+02
   2.7170000e+00   2.7224151e+02
   2.7180000e+00   2.3651047e+02
   2.7190000e+00   1.6453145e+02
   2.7200000e+00   6.3895423e+01
   2.7210000e+00  -5.1526296e+01
   2.7220000e+00  -1.6392257e+02
   2.7230000e+00  -2.5965472e+02
   2.7240000e+00  -3.2329429e+02
   2.7250000e+00  -3.4485021e+02
   2.7260000e+00  -3.2476772e+02
   2.7270000e+00  -2.6317650e+02
   2.7280000e+00  -1.6926573e+02
   2.7290000e+00  -5.7580894e+01
   2.7300000e+00   5.9942430e+01
   2.7310000e+00   1.6675356e+02
   2.7320000e+00   2.4819181e+02
   2.7330000e+00   2.9531873e+02
   2.7340000e+00   3.0005448e+02
   2.7350000e+00   2.6356878e+02
   2.7360000e+00   1.9359242e+02
   2.7370000e+00   9.9035151e+01
   2.7380000e+00  -2.7794975e+00
   2.7390000e+00  -9.5361159e+01
   2.7400000e+00  -1.6539581e+02
   2.7410000e+00  -1.9779329e+02
   2.7420000e+00  -1.8643596e+02
   2.7430000e+00  -1.3196659e+02
   2.7440000e+00  -3.8711177e+01
   2.7450000e+00   8.0336655e+01
   2.7460000e+00   2.1118504e+02
   2.7470000e+00   3.3967520e+02
   2.7480000e+00   4.4839740e+02
   2.7490000e+00   5.2559773e+02
   2.7500000e+00   5.6235675e+02
   2.7510000e+00   5.5208887e+02
   2.7520000e+00   5.0049647e+02
   2.7530000e+00   4.1596016e+02
   2.7540000e+00   3.1001192e+02
   2.7550000e+00   1.9988690e+02
   2.7560000e+00   9.9142918e+01
   2.7570000e+00   2.0473893e+01
   2.7580000e+00  -2.4862802e+01
   2.7590000e+00  -3.4149965e+01
   2.7600000e+00  -7.5126980e+00
   2.7610000e+00   4.9548308e+01
   2.7620000e+00   1.2389224e+02
   2.7630000e+00   2.0479366e+02
   2.7640000e+00   2.7839947e+02
   2.7650000e+00   3.2930106e+02
   2.7660000e+00   3.4938467e+02
   2.7670000e+00   3.3122981e+02
   2.7680000e+00   2.7342844e+02
   2.7690000e+00   1.8370241e+02
   2.7700000e+00   7.0989278e+01
   2.7710000e+00  -5.0396474e+01
   2.7720000e+00  -1.6407538e+02
   2.7730000e+00  -2.5802857e+02
   2.7740000e+00  -3.1816050e+02
   2.7750000e+00  -3.3584414e+02
   2.7760000e+00  -3.1179712e+02
   2.7770000e+00  -2.4672619e+02
   2.7780000e+00  -1.5103777e+02
   2.7790000e+00  -3.9650310e+01
   2.7800000e+00   7.4918132e+01
   2.7810000e+00   1.7581177e+02
   2.7820000e+00   2.4931178e+02
   2.7830000e+00   2.8684887e+02
   2.7840000e+00   2.8064178e+02
   2.7850000e+00   2.3274952e+02
   2.7860000e+00   1.5091448e+02
   2.7870000e+00   4.4018847e+01
   2.7880000e+00  -7.0240125e+01
   2.7890000e+00  -1.7594589e+02
   2.7900000e+00  -2.6034042e+02
   2.7910000e+00  -3.0846639e+02
   2.7920000e+00  -3.1454451e+02
   2.7930000e+00  -2.7888328e+02
   2.7940000e+00  -2.0509108e+02
   2.7950000e+00  -1.0577077e+02
   2.7960000e+00   5.4431556e+00
   2.7970000e+00   1.1470006e+02
   2.7980000e+00   2.0503610e+02
   2.7990000e+00   2.6554625e+02
   2.8000000e+00   2.8817204e+02
   2.8010000e+00   2.6668287e+02
   2.8020000e+00   2.0650956e+02
   2.8030000e+00   1.1546921e+02
   2.8040000e+00   4.8773286e+00
   2.8050000e+00  -1.0749893e+02
   2.8060000e+00  -2.0700618e+02
   2.8070000e+00  -2.7979215e+02
   2.8080000e+00  -3.1396097e+02
   2.8090000e+00  -3.0682901e+02
   2.8100000e+00  -2.5898830e+02
   2.8110000e+00  -1.7663200e+02
   2.8120000e+00  -7.3676362e+01
   2.8130000e+00   3.8185987e+01
   2.8140000e+00   1.4388948e+02
   2.8150000e+00   2.2653112e+02
   2.8160000e+00   2.7633567e+02
   2.8170000e+00   2.8456865e+02
   2.8180000e+00   2.4886411e+02
   2.8190000e+00   1.7649168e+02
   2.8200000e+00   7.6569751e+01
   2.8210000e+00  -3.6403876e+01
   2.8220000e+00  -1.4559612e+02
   2.8230000e+00  -2.3816722e+02
   2.8240000e+00  -2.9947424e+02
   2.8250000e+00  -3.1983336e+02
   2.8260000e+00  -2.9876532e+02
   2.8270000e+00  -2.3669601e+02
   2.8280000e+00  -1.4347848e+02
   2.8290000e+00  -3.4117232e+01
   2.8300000e+00   7.8242013e+01
   2.8310000e+00   1.7684629e+02
   2.8320000e+00   2.4777047e+02
   2.8330000e+00   2.8262983e+02
   2.8340000e+00   2.7454821e+02
   2.8350000e+00   2.2563007e+02
   2.8360000e+00   1.4383403e+02
   2.8370000e+00   3.8214776e+01
   2.8380000e+00  -7.4501888e+01
   2.8390000e+00  -1.7877847e+02
   2.8400000e+00  -2.6214341e+02
   2.8410000e+00  -3.1016389e+02
   2.8420000e+00  -3.1671170e+02
   2.8430000e+00  -2.8177369e+02
   2.8440000e+00  -2.0877580e+02
   2.8450000e+00  -1.1011623e+02
   2.8460000e+00   4.1506705e-01
   2.8470000e+00   1.0887233e+02
   2.8480000e+00   1.9851748e+02
   2.8490000e+00   2.5887571e+02
   2.8500000e+00   2.8216799e+02
   2.8510000e+00   2.6194433e+02
   2.8520000e+00   2.0300523e+02
   2.8530000e+00   1.1250959e+02
   2.8540000e+00   1.6695259e+00
   2.8550000e+00  -1.1126685e+02
   2.8560000e+00  -2.1111280e+02
   2.8570000e+00  -2.8387821e+02
   2.8580000e+00  -3.1795366e+02
   2.8590000e+00  -3.1092916e+02
   2.8600000e+00  -2.6325072e+02
   2.8610000e+00  -1.8069229e+02
   2.8620000e+00  -7.7003347e+01
   2.8630000e+00   3.5750261e+01
   2.8640000e+00   1.4190374e+02
   2.8650000e+00   2.2430533e+02
   2.8660000e+00   2.7354894e+02
   2.8670000e+00   2.8156695e+02
   2.8680000e+00   2.4634657e+02
   2.8690000e+00   1.7498211e+02
   2.8700000e+00   7.6195649e+01
   2.8710000e+00  -3.5709602e+01
   2.8720000e+00  -1.4383510e+02
   2.8730000e+00  -2.3537899e+02
   2.8740000e+00  -2.9609609e+02
   2.8750000e+00  -3.1683134e+02
   2.8760000e+00  -2.9725536e+02
   2.8770000e+00  -2.3727282e+02
   2.8780000e+00  -1.4578821e+02
   2.8790000e+00  -3.7092664e+01
   2.8800000e+00   7.5707801e+01
   2.8810000e+00   1.7531246e+02
   2.8820000e+00   2.4713629e+02
   2.8830000e+00   2.8251446e+02
   2.8840000e+00   2.7478537e+02
   2.8850000e+00   2.2646358e+02
   2.8860000e+00   1.4570070e+02
   2.8870000e+00   4.1292108e+01
   2.8880000e+00  -7.0590053e+01
   2.8890000e+00  -1.7481005e+02
   2.8900000e+00  -2.5882689e+02
   2.8910000e+00  -3.0772161e+02
   2.8920000e+00  -3.1485284e+02
   2.8930000e+00  -2.8004538e+02
   2.8940000e+00  -2.0689105e+02
   2.8950000e+00  -1.0792133e+02
   2.8960000e+00   3.1831530e+00
   2.8970000e+00   1.1261707e+02
   2.8980000e+00   2.0340096e+02
   2.8990000e+00   2.6437125e+02
   2.9000000e+00   2.8717136e+02
   2.9010000e+00   2.6555194e+02
   2.9020000e+00   2.0530944e+02
   2.9030000e+00   1.1456791e+02
   2.9040000e+00   4.5703550e+00
   2.9050000e+00  -1.0741322e+02
   2.9060000e+00  -2.0727461e+02
   2.9070000e+00  -2.8117900e+02
   2.9080000e+00  -3.1663507e+02
   2.9090000e+00  -3.1019493e+02
   2.9100000e+00  -2.6208882e+02
   2.9110000e+00  -1.7876021e+02
   2.9120000e+00  -7.4696453e+01
   2.9130000e+00   3.7927778e+01
   2.9140000e+00   1.4389704e+02
   2.9150000e+00   2.2639067e+02
   2.9160000e+00   2.7574251e+02
   2.9170000e+00   2.8335347e+02
   2.9180000e+00   2.4707402e+02
   2.9190000e+00   1.7444566e+02
   2.9200000e+00   7.4771722e+01
   2.9210000e+00  -3.7497572e+01
   2.9220000e+00  -1.4579018e+02
   2.9230000e+00  -2.3757578e+02
   2.9240000e+00  -2.9843721e+02
   2.9250000e+00  -3.1883268e+02
   2.9260000e+00  -2.9838602e+02
   2.9270000e+00  -2.3753045e+02
   2.9280000e+00  -1.4580423e+02
   2.9290000e+00  -3.7545129e+01
   2.9300000e+00   7.4754290e+01
   2.9310000e+00   1.7443443e+02
   2.9320000e+00   2.4686811e+02
   2.9330000e+00   2.8260773e+02
   2.9340000e+00   2.7416538e+02
   2.9350000e+00   2.2397170e+02
   2.9360000e+00   1.4093036e+02
   2.9370000e+00   3.4811668e+01
   2.9380000e+00  -7.7726855e+01
   2.9390000e+00  -1.8177204e+02
   2.9400000e+00  -2.6534117e+02
   2.9410000e+00  -3.1388663e+02
   2.9420000e+00  -3.2078193e+02
   2.9430000e+00  -2.8568744e+02
   2.9440000e+00  -2.1210932e+02
   2.9450000e+00  -1.1266183e+02
   2.9460000e+00  -1.1511341e+00
   2.9470000e+00   1.0856676e+02
   2.9480000e+00   1.9952389e+02
   2.9490000e+00   2.6054054e+02
   2.9500000e+00   2.8316866e+02
   2.9510000e+00   2.6105535e+02
   2.9520000e+00   2.0000625e+02
   2.9530000e+00   1.0838061e+02
   2.9540000e+00  -2.1622739e+00
   2.9550000e+00  -1.1393725e+02
   2.9560000e+00  -2.1266740e+02
   2.9570000e+00  -2.8474640e+02
   2.9580000e+00  -3.1822442e+02
   2.9590000e+00  -3.1022903e+02
   2.9600000e+00  -2.6129026e+02
   2.9610000e+00  -1.7775738e+02
   2.9620000e+00  -7.3782929e+01
   2.9630000e+00   3.8795322e+01
   2.9640000e+00   1.4492725e+02
   2.9650000e+00   2.2777047e+02
   2.9660000e+00   2.7752259e+02
   2.9670000e+00   2.8543872e+02
   2.9680000e+00   2.4925786e+02
   2.9690000e+00   1.7652457e+02
   2.9700000e+00   7.6687573e+01
   2.9710000e+00  -3.5632643e+01
   2.9720000e+00  -1.4381918e+02
   2.9730000e+00  -2.3552413e+02
   2.9740000e+00  -2.9665661e+02
   2.9750000e+00  -3.1783201e+02
   2.9760000e+00  -2.9844263e+02
   2.9770000e+00  -2.3839222e+02
   2.9780000e+00  -1.4675131e+02
   2.9790000e+00  -3.7844133e+01
   2.9800000e+00   7.5362527e+01
   2.9810000e+00   1.7563303e+02
   2.9820000e+00   2.4810966e+02
   2.9830000e+00   2.8363790e+02
   2.9840000e+00   2.7528722e+02
   2.9850000e+00   2.2578762e+02
   2.9860000e+00   1.4381565e+02
   2.9870000e+00   3.8534054e+01
   2.9880000e+00  -7.3971242e+01
   2.9890000e+00  -1.7890384e+02
   2.9900000e+00  -2.6384125e+02
   2.9910000e+00  -3.1353692e+02
   2.9920000e+00  -3.2079704e+02
   2.9930000e+00  -2.8515943e+02
   2.9940000e+00  -2.1054082e+02
   2.9950000e+00  -1.1028319e+02
   2.9960000e+00   1.1801395e+00
   2.9970000e+00   1.0988022e+02
   2.9980000e+00   1.9940444e+02
   2.9990000e+00   2.5946332e+02
   3.0000000e+00   2.8216799e+02
   3.0010000e+00   2.6093710e+02
   3.0020000e+00   2.0077270e+02
   3.0030000e+00   1.0935969e+02
   3.0040000e+00  -1.6045651e+00
   3.0050000e+00  -1.1384133e+02
   3.0060000e+00  -2.1266590e+02
   3.0070000e+00  -2.8476111e+02
   3.0080000e+00  -3.1883706e+02
   3.0090000e+00  -3.1221725e+02
   3.0100000e+00  -2.6474102e+02
   3.0110000e+00  -1.8177371e+02
   3.0120000e+00  -7.7269954e+01
   3.0130000e+00   3.6013664e+01
   3.0140000e+00   1.4181522e+02
   3.0150000e+00   2.2303620e+02
   3.0160000e+00   2.7101607e+02
   3.0170000e+00   2.7848907e+02
   3.0180000e+00   2.4359880e+02
   3.0190000e+00   1.7284458e+02
   3.0200000e+00   7.4129446e+01
   3.0210000e+00  -3.8524015e+01
   3.0220000e+00  -1.4766757e+02
   3.0230000e+00  -2.3962720e+02
   3.0240000e+00  -2.9965673e+02
   3.0250000e+00  -3.1883268e+02
   3.0260000e+00  -2.9760211e+02
   3.0270000e+00  -2.3654204e+02
   3.0280000e+00  -1.4479994e+02
   3.0290000e+00  -3.6473442e+01
   3.0300000e+00   7.5838978e+01
   3.0310000e+00   1.7532140e+02
   3.0320000e+00   2.4764673e+02
   3.0330000e+00   2.8410073e+02
   3.0340000e+00   2.7752937e+02
   3.0350000e+00   2.2980310e+02
   3.0360000e+00   1.4877686e+02
   3.0370000e+00   4.3534060e+01
   3.0380000e+00  -6.8912664e+01
   3.0390000e+00  -1.7270870e+02
   3.0400000e+00  -2.5536303e+02
   3.0410000e+00  -3.0261035e+02
   3.0420000e+00  -3.0851943e+02
   3.0430000e+00  -2.7305815e+02
   3.0440000e+00  -1.9928904e+02
   3.0450000e+00  -9.9300210e+01
   3.0460000e+00   1.3070388e+01
   3.0470000e+00   1.2348697e+02
   3.0480000e+00   2.1463719e+02
   3.0490000e+00   2.7574109e+02
   3.0500000e+00   2.9917945e+02
   3.0510000e+00   2.7891284e+02
   3.0520000e+00   2.2028992e+02
   3.0530000e+00   1.3080537e+02
   3.0540000e+00   2.1622467e+01
   3.0550000e+00  -8.9315541e+01
   3.0560000e+00  -1.8737233e+02
   3.0570000e+00  -2.5907540e+02
   3.0580000e+00  -2.9289998e+02
   3.0590000e+00  -2.8605042e+02
   3.0600000e+00  -2.3827326e+02
   3.0610000e+00  -1.5482277e+02
   3.0620000e+00  -4.9665407e+01
   3.0630000e+00   6.4377141e+01
   3.0640000e+00   1.7090615e+02
   3.0650000e+00   2.5265270e+02
   3.0660000e+00   3.0093646e+02
   3.0670000e+00   3.0852408e+02
   3.0680000e+00   2.7362062e+02
   3.0690000e+00   2.0285091e+02
   3.0700000e+00   1.0416764e+02
   3.0710000e+00  -8.4250944e+00
   3.0720000e+00  -1.1760447e+02
   3.0730000e+00  -2.0993268e+02
   3.0740000e+00  -2.7072197e+02
   3.0750000e+00  -2.9081381e+02
   3.0760000e+00  -2.7020758e+02
   3.0770000e+00  -2.0905356e+02
   3.0780000e+00  -1.1660245e+02
   3.0790000e+00  -7.6216576e+00
   3.0800000e+00   1.0449725e+02
   3.0810000e+00   2.0256844e+02
   3.0820000e+00   2.7276493e+02
   3.0830000e+00   3.0745174e+02
   3.0840000e+00   3.0034458e+02
   3.0850000e+00   2.5341658e+02
   3.0860000e+00   1.7367510e+02
   3.0870000e+00   6.8987071e+01
   3.0880000e+00  -4.4263306e+01
   3.0890000e+00  -1.4992786e+02
   3.0900000e+00  -2.3448743e+02
   3.0910000e+00  -2.8264648e+02
   3.0920000e+00  -2.8835970e+02
   3.0930000e+00  -2.5238670e+02
   3.0940000e+00  -1.7881604e+02
   3.0950000e+00  -8.0148660e+01
   3.0960000e+00   3.0439024e+01
   3.0970000e+00   1.3963459e+02
   3.0980000e+00   2.3047093e+02
   3.0990000e+00   2.9155578e+02
   3.1000000e+00   3.1418956e+02
   3.1010000e+00   2.9189905e+02
   3.1020000e+00   2.3079749e+02
   3.1030000e+00   1.3950498e+02
   3.1040000e+00   2.9689237e+01
   3.1050000e+00  -8.1225897e+01
   3.1060000e+00  -1.7961114e+02
   3.1070000e+00  -2.5238017e+02
   3.1080000e+00  -2.8752768e+02
   3.1090000e+00  -2.8158729e+02
   3.1100000e+00  -2.3410435e+02
   3.1110000e+00  -1.5079033e+02
   3.1120000e+00  -4.6066405e+01
   3.1130000e+00   6.7454550e+01
   3.1140000e+00   1.7393770e+02
   3.1150000e+00   2.5636676e+02
   3.1160000e+00   3.0560816e+02
   3.1170000e+00   3.1350975e+02
   3.1180000e+00   2.7780364e+02
   3.1190000e+00   2.0551470e+02
   3.1200000e+00   1.0552560e+02
   3.1210000e+00  -7.3723946e+00
   3.1220000e+00  -1.1583825e+02
   3.1230000e+00  -2.0712733e+02
   3.1240000e+00  -2.6735577e+02
   3.1250000e+00  -2.8781179e+02
   3.1260000e+00  -2.6833023e+02
   3.1270000e+00  -2.0841312e+02
   3.1280000e+00  -1.1670726e+02
   3.1290000e+00  -7.7162968e+00
   3.1300000e+00   1.0502292e+02
   3.1310000e+00   2.0396514e+02
   3.1320000e+00   2.7501066e+02
   3.1330000e+00   3.1033093e+02
   3.1340000e+00   3.0339588e+02
   3.1350000e+00   2.5590893e+02
   3.1360000e+00   1.7485111e+02
   3.1370000e+00   6.8627599e+01
   3.1380000e+00  -4.5482277e+01
   3.1390000e+00  -1.5084391e+02
   3.1400000e+00  -2.3443593e+02
   3.1410000e+00  -2.8217219e+02
   3.1420000e+00  -2.8882326e+02
   3.1430000e+00  -2.5470287e+02
   3.1440000e+00  -1.8258220e+02
   3.1450000e+00  -8.4073304e+01
   3.1460000e+00   2.7211691e+01
   3.1470000e+00   1.3670812e+02
   3.1480000e+00   2.2686453e+02
   3.1490000e+00   2.8712626e+02
   3.1500000e+00   3.1018687e+02
   3.1510000e+00   2.8991054e+02
   3.1520000e+00   2.3107640e+02
   3.1530000e+00   1.4045843e+02
   3.1540000e+00   2.9158840e+01
   3.1550000e+00  -8.4173347e+01
   3.1560000e+00  -1.8411784e+02
   3.1570000e+00  -2.5693842e+02
   3.1580000e+00  -2.9157264e+02
   3.1590000e+00  -2.8589953e+02
   3.1600000e+00  -2.3973237e+02
   3.1610000e+00  -1.5771479e+02
   3.1620000e+00  -5.2994812e+01
   3.1630000e+00   6.1951172e+01
   3.1640000e+00   1.7007756e+02
   3.1650000e+00   2.5290438e+02
   3.1660000e+00   3.0089181e+02
   3.1670000e+00   3.0690965e+02
   3.1680000e+00   2.7026592e+02
   3.1690000e+00   1.9875583e+02
   3.1700000e+00   1.0053529e+02
   3.1710000e+00  -1.1258835e+01
   3.1720000e+00  -1.2044422e+02
   3.1730000e+00  -2.1383060e+02
   3.1740000e+00  -2.7574252e+02
   3.1750000e+00  -2.9581718e+02
   3.1760000e+00  -2.7389079e+02
   3.1770000e+00  -2.1128531e+02
   3.1780000e+00  -1.1874493e+02
   3.1790000e+00  -1.1315773e+01
   3.1800000e+00   9.8948098e+01
   3.1810000e+00   1.9669940e+02
   3.1820000e+00   2.6883197e+02
   3.1830000e+00   3.0656330e+02
   3.1840000e+00   3.0148870e+02
   3.1850000e+00   2.5417962e+02
   3.1860000e+00   1.7200067e+02
   3.1870000e+00   6.4600543e+01
   3.1880000e+00  -4.9866240e+01
   3.1890000e+00  -1.5476889e+02
   3.1900000e+00  -2.3757907e+02
   3.1910000e+00  -2.8459186e+02
   3.1920000e+00  -2.9062658e+02
   3.1930000e+00  -2.5599654e+02
   3.1940000e+00  -1.8360375e+02
   3.1950000e+00  -8.5106721e+01
   3.1960000e+00   2.6081685e+01
   3.1970000e+00   1.3566132e+02
   3.1980000e+00   2.2602311e+02
   3.1990000e+00   2.8610844e+02
   3.2000000e+00   3.0818552e+02
   3.2010000e+00   2.8637858e+02
   3.2020000e+00   2.2631483e+02
   3.2030000e+00   1.3552008e+02
   3.2040000e+00   2.5010934e+01
   3.2050000e+00  -8.7419920e+01
   3.2060000e+00  -1.8708791e+02
   3.2070000e+00  -2.6015248e+02
   3.2080000e+00  -2.9476667e+02
   3.2090000e+00  -2.8819834e+02
   3.2100000e+00  -2.4060750e+02
   3.2110000e+00  -1.5772998e+02
   3.2120000e+00  -5.3551624e+01
   3.2130000e+00   5.9634704e+01
   3.2140000e+00   1.6590634e+02
   3.2150000e+00   2.4792217e+02
   3.2160000e+00   2.9632000e+02
   3.2170000e+00   3.0315848e+02
   3.2180000e+00   2.6670169e+02
   3.2190000e+00   1.9434072e+02
   3.2200000e+00   9.4808867e+01
   3.2210000e+00  -1.7757289e+01
   3.2220000e+00  -1.2663958e+02
   3.2230000e+00  -2.1902696e+02
   3.2240000e+00  -2.8027151e+02
   3.2250000e+00  -3.0082055e+02
   3.2260000e+00  -2.8034698e+02
   3.2270000e+00  -2.1909794e+02
   3.2280000e+00  -1.2661050e+02
   3.2290000e+00  -1.7589277e+01
   3.2300000e+00   9.4969532e+01
   3.2310000e+00   1.9410278e+02
   3.2320000e+00   2.6554201e+02
   3.2330000e+00   3.0064519e+02
   3.2340000e+00   2.9240010e+02
   3.2350000e+00   2.4306237e+02
   3.2360000e+00   1.6087607e+02
   3.2370000e+00   5.5067937e+01
   3.2380000e+00  -5.7577823e+01
   3.2390000e+00  -1.6177453e+02
   3.2400000e+00  -2.4546473e+02
   3.2410000e+00  -2.9435834e+02
   3.2420000e+00  -3.0212376e+02
   3.2430000e+00  -2.6815070e+02
   3.2440000e+00  -1.9516006e+02
   3.2450000e+00  -9.5325413e+01
   3.2460000e+00   1.7180521e+01
   3.2470000e+00   1.2756088e+02
   3.2480000e+00   2.1815761e+02
   3.2490000e+00   2.7816568e+02
   3.2500000e+00   3.0018012e+02
   3.2510000e+00   2.7853943e+02
   3.2520000e+00   2.1888874e+02
   3.2530000e+00   1.2863985e+02
   3.2540000e+00   1.8622360e+01
   3.2550000e+00  -9.3511764e+01
   3.2560000e+00  -1.9303098e+02
   3.2570000e+00  -2.6588664e+02
   3.2580000e+00  -3.0001037e+02
   3.2590000e+00  -2.9264125e+02
   3.2600000e+00  -2.4419001e+02
   3.2610000e+00  -1.6076116e+02
   3.2620000e+00  -5.6583402e+01
   3.2630000e+00   5.6128682e+01
   3.2640000e+00   1.6185563e+02
   3.2650000e+00   2.4372332e+02
   3.2660000e+00   2.9263573e+02
   3.2670000e+00   3.0055871e+02
   3.2680000e+00   2.6534078e+02
   3.2690000e+00   1.9399291e+02
   3.2700000e+00   9.5180740e+01
   3.2710000e+00  -1.6738572e+01
   3.2720000e+00  -1.2482660e+02
   3.2730000e+00  -2.1645984e+02
   3.2740000e+00  -2.7752979e+02
   3.2750000e+00  -2.9881920e+02
   3.2760000e+00  -2.7972943e+02
   3.2770000e+00  -2.1970064e+02
   3.2780000e+00  -1.2763034e+02
   3.2790000e+00  -1.8402868e+01
   3.2800000e+00   9.4220960e+01
   3.2810000e+00   1.9274771e+02
   3.2820000e+00   2.6328654e+02
   3.2830000e+00   2.9831573e+02
   3.2840000e+00   2.9161252e+02
   3.2850000e+00   2.4506752e+02
   3.2860000e+00   1.6563558e+02
   3.2870000e+00   6.1327876e+01
   3.2880000e+00  -5.1214882e+01
   3.2890000e+00  -1.5580333e+02
   3.2900000e+00  -2.3936268e+02
   3.2910000e+00  -2.8726917e+02
   3.2920000e+00  -2.9367280e+02
   3.2930000e+00  -2.5867120e+02
   3.2940000e+00  -1.8523002e+02
   3.2950000e+00  -8.5259294e+01
   3.2960000e+00   2.7478724e+01
   3.2970000e+00   1.3840781e+02
   3.2980000e+00   2.2975916e+02
   3.2990000e+00   2.9052779e+02
   3.3000000e+00   3.1318889e+02
   3.3010000e+00   2.9200020e+02
   3.3020000e+00   2.3267279e+02
   3.3030000e+00   1.4270924e+02
   3.3040000e+00   3.3001897e+01
   3.3050000e+00  -7.8733165e+01
   3.3060000e+00  -1.7787909e+02
   3.3070000e+00  -2.5060819e+02
   3.3080000e+00  -2.8490178e+02
   3.3090000e+00  -2.7785031e+02
   3.3100000e+00  -2.2953915e+02
   3.3110000e+00  -1.4581116e+02
   3.3120000e+00  -4.1032180e+01
   3.3130000e+00   7.2169319e+01
   3.3140000e+00   1.7781664e+02
   3.3150000e+00   2.5881955e+02
   3.3160000e+00   3.0642382e+02
   3.3170000e+00   3.1327687e+02
   3.3180000e+00   2.7786378e+02
   3.3190000e+00   2.0738867e+02
   3.3200000e+00   1.0997174e+02
   3.3210000e+00  -9.0867201e-01
   3.3220000e+00  -1.0877809e+02
   3.3230000e+00  -2.0061841e+02
   3.3240000e+00  -2.6126111e+02
   3.3250000e+00  -2.8080707e+02
   3.3260000e+00  -2.5918693e+02
   3.3270000e+00  -1.9717854e+02
   3.3280000e+00  -1.0464966e+02
   3.3290000e+00   3.9848868e+00
   3.3300000e+00   1.1656416e+02
   3.3310000e+00   2.1664714e+02
   3.3320000e+00   2.8968660e+02
   3.3330000e+00   3.2629195e+02
   3.3340000e+00   3.1891139e+02
   3.3350000e+00   2.7008259e+02
   3.3360000e+00   1.8875941e+02
   3.3370000e+00   8.4326576e+01
   3.3380000e+00  -2.7012901e+01
   3.3390000e+00  -1.3076226e+02
   3.3400000e+00  -2.1496033e+02
   3.3410000e+00  -2.6440408e+02
   3.3420000e+00  -2.7193598e+02
   3.3430000e+00  -2.3716787e+02
   3.3440000e+00  -1.6386750e+02
   3.3450000e+00  -6.5051043e+01
   3.3460000e+00   4.5572888e+01
   3.3470000e+00   1.5466358e+02
   3.3480000e+00   2.4545024e+02
   3.3490000e+00   3.0659620e+02
   3.3500000e+00   3.2919968e+02
   3.3510000e+00   3.0659871e+02
   3.3520000e+00   2.4505844e+02
   3.3530000e+00   1.5346699e+02
   3.3540000e+00   4.3588107e+01
   3.3550000e+00  -6.7265748e+01
   3.3560000e+00  -1.6554239e+02
   3.3570000e+00  -2.3790963e+02
   3.3580000e+00  -2.7201471e+02
   3.3590000e+00  -2.6446193e+02
   3.3600000e+00  -2.1547721e+02
   3.3610000e+00  -1.3173051e+02
   3.3620000e+00  -2.8116764e+01
   3.3630000e+00   8.3277369e+01
   3.3640000e+00   1.8776868e+02
   3.3650000e+00   2.6940313e+02
   3.3660000e+00   3.1941837e+02
   3.3670000e+00   3.2924067e+02
   3.3680000e+00   2.9588329e+02
   3.3690000e+00   2.2574790e+02
   3.3700000e+00   1.2730942e+02
   3.3710000e+00   1.5137141e+01
   3.3720000e+00  -9.3612763e+01
   3.3730000e+00  -1.8625165e+02
   3.3740000e+00  -2.4867914e+02
   3.3750000e+00  -2.7180100e+02
   3.3760000e+00  -2.5503787e+02
   3.3770000e+00  -1.9763065e+02
   3.3780000e+00  -1.0818324e+02
   3.3790000e+00  -1.1923855e+00
   3.3800000e+00   1.0984023e+02
   3.3810000e+00   2.0737964e+02
   3.3820000e+00   2.7729543e+02
   3.3830000e+00   3.1164201e+02
   3.3840000e+00   3.0378779e+02
   3.3850000e+00   2.5549908e+02
   3.3860000e+00   1.7389117e+02
   3.3870000e+00   6.7451859e+01
   3.3880000e+00  -4.6591631e+01
   3.3890000e+00  -1.5183893e+02
   3.3900000e+00  -2.3550223e+02
   3.3910000e+00  -2.8364774e+02
   3.3920000e+00  -2.9117316e+02
   3.3930000e+00  -2.5839495e+02
   3.3940000e+00  -1.8789031e+02
   3.3950000e+00  -9.0819302e+01
   3.3960000e+00   1.9782561e+01
   3.3970000e+00   1.2954955e+02
   3.3980000e+00   2.2044450e+02
   3.3990000e+00   2.8099696e+02
   3.4000000e+00   3.0318215e+02
   3.4010000e+00   2.8107159e+02
   3.4020000e+00   2.2055067e+02
   3.4030000e+00   1.2949032e+02
   3.4040000e+00   1.9277000e+01
   3.4050000e+00  -9.2164126e+01
   3.4060000e+00  -1.9048746e+02
   3.4070000e+00  -2.6245604e+02
   3.4080000e+00  -2.9670936e+02
   3.4090000e+00  -2.9050761e+02
   3.4100000e+00  -2.4347110e+02
   3.4110000e+00  -1.6075091e+02
   3.4120000e+00  -5.6197947e+01
   3.4130000e+00   5.7501192e+01
   3.4140000e+00   1.6388905e+02
   3.4150000e+00   2.4549995e+02
   3.4160000e+00   2.9340013e+02
   3.4170000e+00   3.0023346e+02
   3.4180000e+00   2.6445111e+02
   3.4190000e+00   1.9302474e+02
   3.4200000e+00   9.4010723e+01
   3.4210000e+00  -1.8809085e+01
   3.4220000e+00  -1.2846252e+02
   3.4230000e+00  -2.2149411e+02
   3.4240000e+00  -2.8277961e+02
   3.4250000e+00  -3.0282190e+02
   3.4260000e+00  -2.8181037e+02
   3.4270000e+00  -2.2058300e+02
   3.4280000e+00  -1.2881614e+02
   3.4290000e+00  -2.0800847e+01
   3.4300000e+00   9.1069642e+01
   3.4310000e+00   1.9016589e+02
   3.4320000e+00   2.6202934e+02
   3.4330000e+00   2.9755522e+02
   3.4340000e+00   2.8951427e+02
   3.4350000e+00   2.4038200e+02
   3.4360000e+00   1.5877967e+02
   3.4370000e+00   5.3978500e+01
   3.4380000e+00  -5.7764675e+01
   3.4390000e+00  -1.6180071e+02
   3.4400000e+00  -2.4615009e+02
   3.4410000e+00  -2.9597317e+02
   3.4420000e+00  -3.0417870e+02
   3.4430000e+00  -2.6988585e+02
   3.4440000e+00  -1.9631571e+02
   3.4450000e+00  -9.6274178e+01
   3.4460000e+00   1.5885312e+01
   3.4470000e+00   1.2567703e+02
   3.4480000e+00   2.1588332e+02
   3.4490000e+00   2.7566323e+02
   3.4500000e+00   2.9717810e+02
   3.4510000e+00   2.7456685e+02
   3.4520000e+00   2.1368213e+02
   3.4530000e+00   1.2248379e+02
   3.4540000e+00   1.2205319e+01
   3.4550000e+00  -9.9700596e+01
   3.4560000e+00  -1.9886594e+02
   3.4570000e+00  -2.7137912e+02
   3.4580000e+00  -3.0514760e+02
   3.4590000e+00  -2.9730964e+02
   3.4600000e+00  -2.4857014e+02
   3.4610000e+00  -1.6564136e+02
   3.4620000e+00  -6.2966627e+01
   3.4630000e+00   4.7438353e+01
   3.4640000e+00   1.5056612e+02
   3.4650000e+00   2.2997924e+02
   3.4660000e+00   2.7642954e+02
   3.4670000e+00   2.8159145e+02
   3.4680000e+00   2.4335223e+02
   3.4690000e+00   1.6910049e+02
   3.4700000e+00   6.7962014e+01
   3.4710000e+00  -4.5559000e+01
   3.4720000e+00  -1.5467869e+02
   3.4730000e+00  -2.4692109e+02
   3.4740000e+00  -3.0806704e+02
   3.4750000e+00  -3.2883943e+02
   3.4760000e+00  -3.0922664e+02
   3.4770000e+00  -2.4950040e+02
   3.4780000e+00  -1.5919914e+02
   3.4790000e+00  -5.3160137e+01
   3.4800000e+00   5.5942938e+01
   3.4810000e+00   1.5134710e+02
   3.4820000e+00   2.1888284e+02
   3.4830000e+00   2.5054734e+02
   3.4840000e+00   2.3965212e+02
   3.4850000e+00   1.8882680e+02
   3.4860000e+00   1.0673724e+02
   3.4870000e+00   1.8987105e+00
   3.4880000e+00  -1.0929955e+02
   3.4890000e+00  -2.1160244e+02
   3.4900000e+00  -2.9302731e+02
   3.4910000e+00  -3.3815063e+02
   3.4920000e+00  -3.4000922e+02
   3.4930000e+00  -2.9855122e+02
   3.4940000e+00  -2.1707108e+02
   3.4950000e+00  -1.0862541e+02
   3.4960000e+00   1.2256574e+01
   3.4970000e+00   1.3146611e+02
   3.4980000e+00   2.3185377e+02
   3.4990000e+00   3.0266464e+02
   3.5000000e+00   3.3620439e+02
   3.5010000e+00   3.2648414e+02
   3.5020000e+00   2.7933670e+02
   3.5030000e+00   2.0293378e+02
   3.5040000e+00   1.0884111e+02
   3.5050000e+00   1.4774508e+01
   3.5060000e+00  -6.5003022e+01
   3.5070000e+00  -1.1724633e+02
   3.5080000e+00  -1.3069441e+02
   3.5090000e+00  -1.0310546e+02
   3.5100000e+00  -3.5464019e+01
   3.5110000e+00   6.5558066e+01
   3.5120000e+00   1.8531603e+02
   3.5130000e+00   3.1109281e+02
   3.5140000e+00   4.2702234e+02
   3.5150000e+00   5.1584957e+02
   3.5160000e+00   5.6793245e+02
   3.5170000e+00   5.7504338e+02
   3.5180000e+00   5.3500579e+02
   3.5190000e+00   4.5464251e+02
   3.5200000e+00   3.4211775e+02
   3.5210000e+00   2.1091177e+02
   3.5220000e+00   7.7626759e+01
   3.5230000e+00  -4.3959021e+01
   3.5240000e+00  -1.3734914e+02
   3.5250000e+00  -1.9074639e+02
   3.5260000e+00  -2.0197262e+02
   3.5270000e+00  -1.7019086e+02
   3.5280000e+00  -1.0417116e+02
